percent	ang_W	r	phase	choose_angle	delta_1_x_5	delta_2_x_1	delta_3_x_2	delta_4_x_3	delta_5_x_4	delta_5_x_1	delta_1_x_2	delta_2_x_3	delta_3_x_4	delta_4_x_5
0.00	0.000	51.000	0.000	0.004	-0.005	0.004	3.071	2.510	-1.250	1.261	-2.518	-3.071	0.003	-0.007
0.69	0.087	51.000	0.000	0.083	0.097	0.083	0.064	2.438	-1.360	1.159	-2.596	-0.064	0.075	0.103
1.39	0.175	51.000	0.000	0.171	0.194	0.171	0.156	2.345	-1.441	1.062	-2.684	-0.156	0.169	0.184
2.08	0.262	51.000	0.000	0.265	0.268	0.261	0.270	2.251	-1.521	0.989	-2.774	-0.270	0.263	0.265
2.78	0.349	51.000	0.000	0.338	0.338	0.357	0.313	2.177	-1.610	0.919	-2.870	-0.313	0.336	0.353
3.47	0.436	51.000	0.000	0.439	0.459	0.439	0.423	2.084	-1.700	0.798	-2.952	-0.423	0.429	0.443
4.17	0.524	51.000	0.000	0.526	0.531	0.519	0.528	1.992	-1.780	0.725	-3.032	-0.528	0.522	0.524
4.86	0.611	51.000	0.000	0.611	0.539	0.615	0.609	1.906	-1.869	0.718	-3.129	-0.609	0.607	0.612
5.56	0.698	51.000	0.000	0.695	0.548	0.708	0.679	1.820	-1.953	0.708	3.062	-0.679	0.693	0.697
6.25	0.785	51.000	0.000	0.795	0.451	0.803	0.771	1.743	-2.052	0.805	2.967	-0.771	0.770	0.795
6.94	0.873	51.000	0.000	0.879	0.392	0.885	0.872	1.634	-2.138	0.864	2.885	-0.872	0.879	0.882
7.64	0.960	51.000	0.000	0.960	0.295	0.960	0.959	1.562	-2.218	0.962	2.810	-0.959	0.951	0.961
8.33	1.047	51.000	0.000	1.045	0.192	1.051	1.045	1.474	-2.299	1.065	2.719	-1.045	1.039	1.042
9.03	1.134	51.000	0.000	1.130	0.138	1.130	1.135	1.385	-2.397	1.119	2.639	-1.135	1.129	1.140
9.72	1.222	51.000	0.000	1.225	0.033	1.229	1.217	1.361	-2.483	1.224	2.541	-1.217	1.153	1.226
10.42	1.309	51.000	0.000	1.310	-0.064	1.316	1.305	-1.985	-2.551	1.321	2.454	-1.305	-1.785	1.294
11.11	1.396	51.000	0.000	1.389	-0.142	1.388	1.398	1.375	-2.646	1.398	2.382	-1.398	1.138	1.390
11.81	1.484	51.000	0.000	1.494	-0.237	1.497	1.476	1.499	-2.732	1.494	2.273	-1.476	1.014	1.476
12.50	1.571	51.000	0.000	1.559	-0.303	1.540	1.577	1.552	-2.828	1.559	2.230	-1.577	0.961	1.571
13.19	1.658	51.000	0.000	1.659	-0.408	1.642	1.663	1.659	-2.909	1.665	2.128	-1.663	0.854	1.652
13.89	1.745	51.000	0.000	1.753	-0.492	1.762	1.757	1.719	-3.000	1.748	2.008	-1.757	0.794	1.744
14.58	1.833	51.000	0.000	1.827	-0.581	-1.149	1.827	1.827	-3.080	1.838	-1.365	-1.827	0.686	1.823
15.28	1.920	51.000	0.000	1.916	-0.661	1.795	1.921	1.915	3.113	1.918	1.975	-1.921	0.598	1.914
15.97	2.007	51.000	0.000	2.005	-0.740	1.720	2.013	1.992	3.021	1.997	2.050	-2.013	0.522	2.005
16.67	2.094	51.000	0.000	2.096	-0.839	1.671	2.097	2.084	2.951	2.096	2.099	-2.097	0.429	2.075
17.36	2.182	51.000	0.000	2.181	-0.922	1.593	2.181	2.182	2.834	2.179	2.177	-2.181	0.331	2.193
18.06	2.269	51.000	0.000	2.266	-1.012	1.508	2.273	2.260	2.761	2.268	2.262	-2.273	0.253	2.266
18.75	2.356	51.000	0.000	2.362	-1.098	1.400	2.356	2.362	2.665	2.354	2.370	-2.356	0.151	2.362
19.44	2.443	51.000	0.000	2.442	-1.185	1.305	2.461	2.432	2.662	2.442	2.465	-2.461	0.081	2.364
20.14	2.531	51.000	0.000	2.531	-1.275	1.241	2.531	2.532	-0.679	2.532	2.529	-2.531	-0.019	-0.578
20.83	2.618	51.000	0.000	2.618	-1.351	1.137	2.629	2.613	2.624	2.608	2.633	-2.629	-0.099	2.402
21.53	2.705	51.000	0.000	2.701	-1.441	1.051	2.737	2.705	2.648	2.697	2.719	-2.737	-0.191	2.378
22.22	2.793	51.000	0.000	2.800	-1.537	0.970	2.815	2.787	2.810	2.794	2.800	-2.815	-0.274	2.217
22.92	2.880	51.000	0.000	2.880	-1.623	0.890	2.876	2.880	2.882	2.880	2.880	-2.876	-0.367	2.145
23.61	2.967	51.000	0.000	2.969	-1.697	0.785	2.991	2.969	2.968	2.953	2.985	-2.991	-0.455	2.058
24.31	3.054	51.000	0.000	3.052	-1.789	0.711	0.054	3.058	3.035	3.046	3.059	-0.054	-0.545	1.991
25.00	3.142	51.000	0.000	3.139	-1.877	0.628	3.063	-3.139	3.135	3.134	-3.141	-3.063	-0.631	1.891
25.69	-3.054	51.000	0.000	-3.067	-1.957	0.537	3.122	-3.055	-3.065	-3.069	-3.051	-3.122	-0.715	1.808
26.39	-2.967	51.000	0.000	-2.965	-2.055	0.463	2.895	-2.964	-2.965	-2.972	-2.976	-2.895	-0.806	1.708
27.08	-2.880	51.000	0.000	-2.881	-2.145	0.371	2.848	-2.872	-2.883	-2.881	-2.884	-2.848	-0.897	1.626
27.78	-2.793	51.000	0.000	-2.794	-2.232	0.283	2.772	-2.783	-2.798	-2.794	-2.797	-2.772	-0.987	1.542
28.47	-2.705	51.000	0.000	-2.701	-2.320	0.188	2.696	-2.705	-2.697	-2.706	-2.701	-2.696	-1.065	1.440
29.17	-2.618	51.000	0.000	-2.607	-2.461	0.106	2.605	-2.608	-2.616	-2.565	-2.620	-2.605	-1.162	1.359
29.86	-2.531	51.000	0.000	-2.533	0.584	0.021	2.532	-2.542	-2.527	0.673	-2.535	-2.532	-1.228	1.270
30.56	-2.443	51.000	0.000	-2.435	-2.376	-0.078	2.448	-2.429	-2.454	-2.651	-2.435	-2.448	-1.341	1.197
31.25	-2.356	51.000	0.000	-2.349	-2.339	-0.156	2.349	-2.332	-2.366	-2.687	-2.358	-2.349	-1.438	1.109
31.94	-2.269	51.000	0.000	-2.272	-2.273	-0.241	2.263	-2.253	-2.272	-2.754	-2.272	-2.263	-1.517	1.016
32.64	-2.182	51.000	0.000	-2.181	-2.185	-0.332	2.173	-2.154	-2.181	-2.841	-2.182	-2.173	-1.616	0.925
33.33	-2.094	51.000	0.000	-2.098	-2.111	-0.404	2.092	-2.093	-2.098	-2.916	-2.109	-2.092	-1.677	0.841
34.03	-2.007	51.000	0.000	-2.009	-2.013	-0.499	2.005	-1.986	-2.009	-3.013	-2.014	-2.005	-1.784	0.753
34.72	-1.920	51.000	0.000	-1.916	-1.904	-0.594	1.913	1.365	-1.928	-3.122	-1.919	-1.913	1.148	0.672
35.42	-1.833	51.000	0.000	-1.834	-1.840	-0.673	1.829	-1.987	-1.824	3.097	-1.840	-1.829	-1.783	0.567
36.11	-1.745	51.000	0.000	-1.752	-1.754	-0.764	1.737	-1.993	-1.737	3.010	-1.750	-1.737	-1.777	0.480
36.81	-1.658	51.000	0.000	-1.656	-1.664	-0.857	1.661	-2.126	-1.652	2.920	-1.656	-1.661	-1.644	0.395
37.50	-1.571	51.000	0.000	-1.572	-1.583	-0.941	1.574	-2.215	-1.557	2.840	-1.572	-1.574	-1.555	0.300
38.19	-1.484	51.000	0.000	-1.485	-1.484	-1.047	1.486	-2.279	-1.485	2.741	-1.467	-1.486	-1.491	0.229
38.89	-1.396	51.000	0.000	-1.383	-1.391	-1.166	1.406	-2.395	-1.395	2.648	-1.347	-1.406	-1.375	0.138
39.58	-1.309	51.000	0.000	-1.312	-1.307	-1.186	1.307	-2.454	-1.316	2.564	-1.327	-1.307	-1.316	0.059
40.28	-1.222	51.000	0.000	-1.225	-1.222	1.798	1.225	-2.543	-1.225	2.479	1.972	-1.225	-1.227	-0.031
40.97	-1.134	51.000	0.000	-1.134	-1.133	-1.166	1.135	-2.636	-1.132	2.389	-1.347	-1.135	-1.134	-0.125
41.67	-1.047	51.000	0.000	-1.042	-1.051	-1.020	1.042	-2.724	-1.037	2.308	-1.493	-1.042	-1.046	-0.220
42.36	-0.960	51.000	0.000	-0.964	-0.964	-0.971	0.971	-2.816	-0.955	2.220	-1.543	-0.971	-0.954	-0.302
43.06	-0.873	51.000	0.000	-0.872	-0.872	-0.878	0.874	-2.900	-0.861	2.129	-1.635	-0.874	-0.870	-0.396
43.75	-0.785	51.000	0.000	-0.781	-0.781	-0.792	0.780	-2.983	-0.775	2.038	-1.721	-0.780	-0.787	-0.481
44.44	-0.698	51.000	0.000	-0.698	-0.703	-0.697	0.700	-3.074	2.585	1.959	-1.816	-0.700	-0.695	2.441
45.14	-0.611	51.000	0.000	-0.613	-0.604	-0.628	0.620	3.119	2.591	1.861	-1.886	-0.620	-0.605	2.435
45.83	-0.524	51.000	0.000	-0.523	-0.517	-0.525	0.525	3.035	-0.768	1.773	-1.988	-0.525	-0.522	-0.489
46.53	-0.436	51.000	0.000	-0.439	-0.433	-0.439	0.440	2.952	-0.846	1.690	-2.074	-0.440	-0.439	-0.410
47.22	-0.349	51.000	0.000	-0.348	-0.350	-0.348	0.360	2.861	-0.915	1.607	-2.165	-0.360	-0.347	-0.342
47.92	-0.262	51.000	0.000	-0.265	-0.257	-0.274	0.296	2.770	-0.991	1.513	-2.239	-0.296	-0.257	-0.265
48.61	-0.175	51.000	0.000	-0.179	-0.173	-0.179	0.125	2.692	-1.066	1.430	-2.334	-0.125	-0.179	-0.190
49.31	-0.087	51.000	0.000	-0.087	-0.089	-0.083	0.087	2.603	-1.179	1.345	-2.430	-0.087	-0.090	-0.078
50.00	0.000	51.000	0.000	0.005	0.003	-0.002	3.083	2.519	-1.264	1.253	-2.511	-3.083	-0.006	0.007
50.69	0.087	51.000	0.000	0.092	0.101	0.085	0.092	2.432	-1.360	1.155	-2.598	-0.092	0.081	0.104
51.39	0.175	51.000	0.000	0.179	0.179	0.179	0.148	2.341	-1.436	1.077	-2.692	-0.148	0.173	0.180
52.08	0.262	51.000	0.000	0.254	0.254	0.265	0.233	2.261	-1.520	1.002	-2.778	-0.233	0.252	0.263
52.78	0.349	51.000	0.000	0.349	0.355	0.343	0.349	2.172	-1.608	0.902	-2.857	-0.349	0.341	0.351
53.47	0.436	51.000	0.000	0.438	0.399	0.438	0.442	2.083	-1.694	0.857	-2.952	-0.442	0.430	0.438
54.17	0.524	51.000	0.000	0.525	-2.470	0.522	0.523	1.986	-1.783	-2.557	-3.035	-0.523	0.528	0.526
54.86	0.611	51.000	0.000	0.614	0.559	0.615	0.613	1.894	-1.866	0.698	-3.128	-0.613	0.619	0.609
55.56	0.698	51.000	0.000	0.696	-2.482	0.702	0.684	1.820	-1.955	-2.545	3.068	-0.684	0.693	0.698
56.25	0.785	51.000	0.000	0.782	0.442	0.788	0.776	1.731	-2.034	0.815	2.982	-0.776	0.782	0.777
56.94	0.873	51.000	0.000	0.869	0.375	0.875	0.865	1.648	-2.126	0.882	2.895	-0.865	0.865	0.869
57.64	0.960	51.000	0.000	0.954	0.292	0.966	0.945	1.559	-2.210	0.965	2.804	-0.945	0.954	0.953
58.33	1.047	51.000	0.000	1.049	0.207	1.054	1.037	1.496	-2.306	1.050	2.716	-1.037	1.017	1.049
59.03	1.134	51.000	0.000	1.130	0.115	1.135	1.130	1.384	-2.385	1.142	2.635	-1.130	1.129	1.128
59.72	1.222	51.000	0.000	1.223	0.021	1.224	1.223	1.338	-2.475	1.236	2.546	-1.223	1.176	1.219
60.42	1.309	51.000	0.000	1.319	-0.072	1.331	1.302	1.387	-2.565	1.329	2.439	-1.302	1.127	1.309
61.11	1.396	51.000	0.000	1.396	-0.140	1.394	1.397	1.413	-2.655	1.396	2.376	-1.397	1.100	1.398
61.81	1.484	51.000	0.000	1.483	-0.221	1.487	1.483	1.467	-2.741	1.478	2.283	-1.483	1.046	1.485
62.50	1.571	51.000	0.000	1.567	-0.332	1.606	1.567	1.560	-2.813	1.589	2.164	-1.567	0.953	1.556
63.19	1.658	51.000	0.000	1.649	-0.409	1.649	1.656	1.643	-2.894	1.666	2.121	-1.656	0.870	1.637
63.89	1.745	51.000	0.000	1.742	-0.495	1.714	1.754	1.729	-2.989	1.751	2.056	-1.754	0.784	1.733
64.58	1.833	51.000	0.000	1.825	-0.577	1.808	1.833	1.818	-3.074	1.833	1.962	-1.833	0.696	1.818
65.28	1.920	51.000	0.000	1.920	-0.667	1.818	1.931	1.907	3.111	1.924	1.952	-1.931	0.606	1.915
65.97	2.007	51.000	0.000	2.000	-0.752	1.835	1.996	2.013	3.022	2.009	1.935	-1.996	0.500	2.004
66.67	2.094	51.000	0.000	2.096	-0.839	1.715	2.087	2.096	2.930	2.096	2.054	-2.087	0.418	2.096
67.36	2.182	51.000	0.000	2.182	-0.930	1.597	2.182	2.182	2.851	2.187	2.173	-2.182	0.331	2.175
68.06	2.269	51.000	0.000	2.272	-1.015	1.494	2.283	2.262	2.759	2.272	2.275	-2.283	0.252	2.268
68.75	2.356	51.000	0.000	2.356	-1.099	1.405	2.360	2.356	2.677	2.356	2.365	-2.360	0.157	2.350
69.44	2.443	51.000	0.000	2.442	-1.181	1.326	2.451	2.439	-0.715	2.438	2.444	-2.451	0.074	-0.542
70.14	2.531	51.000	0.000	2.534	-1.265	1.223	2.534	2.534	-0.721	2.522	2.547	-2.534	-0.021	-0.536
70.83	2.618	51.000	0.000	2.618	-1.353	1.150	2.619	2.618	-0.672	2.610	2.620	-2.619	-0.105	-0.584
71.53	2.705	51.000	0.000	2.707	-1.449	1.059	2.707	2.704	2.726	2.705	2.711	-2.707	-0.191	2.300
72.22	2.793	51.000	0.000	2.790	-1.534	0.976	2.818	2.786	2.783	2.790	2.794	-2.818	-0.273	2.244
72.92	2.880	51.000	0.000	2.876	-1.615	0.878	2.937	2.876	2.863	2.871	2.892	-2.937	-0.362	2.163
73.61	2.967	51.000	0.000	2.967	-1.700	0.796	2.980	2.967	2.960	2.957	2.974	-2.980	-0.453	2.066
74.31	3.054	51.000	0.000	3.057	-1.789	0.709	3.027	3.056	3.058	3.046	3.061	-3.027	-0.543	1.969
75.00	3.142	51.000	0.000	3.140	-1.885	0.634	3.065	-3.142	3.138	-3.142	3.136	-3.065	-0.628	1.889
75.69	-3.054	51.000	0.000	-3.055	-1.961	0.537	3.043	-3.054	-3.056	-3.065	-3.050	-3.043	-0.716	1.799
76.39	-2.967	51.000	0.000	-2.970	-2.050	0.457	2.944	-2.962	-2.978	-2.977	-2.970	-2.944	-0.808	1.722
77.08	-2.880	51.000	0.000	-2.877	-2.120	0.364	2.846	-2.877	-2.881	-2.907	-2.877	-2.846	-0.893	1.624
77.78	-2.793	51.000	0.000	-2.792	-2.224	0.270	2.803	-2.792	-2.789	-2.803	-2.783	-2.803	-0.978	1.532
78.47	-2.705	51.000	0.000	-2.698	-2.337	0.194	2.684	-2.698	-2.700	-2.689	-2.707	-2.684	-1.072	1.444
79.17	-2.618	51.000	0.000	-2.615	-2.382	0.103	2.613	-2.602	-2.628	-2.644	-2.616	-2.613	-1.168	1.371
79.86	-2.531	51.000	0.000	-2.529	0.516	0.024	2.526	-2.530	-2.528	0.741	-2.537	-2.526	-1.240	1.271
80.56	-2.443	51.000	0.000	-2.447	-2.485	-0.067	2.438	-2.429	-2.448	-2.541	-2.446	-2.438	-1.341	1.192
81.25	-2.356	51.000	0.000	-2.358	-2.370	-0.152	2.351	-2.348	-2.358	-2.657	-2.361	-2.351	-1.421	1.101
81.94	-2.269	51.000	0.000	-2.273	-2.274	-0.234	2.264	-2.269	-2.273	-2.752	-2.280	-2.264	-1.501	1.016
82.64	-2.182	51.000	0.000	-2.183	-2.183	-0.336	2.190	-2.192	-2.182	-2.843	-2.178	-2.190	-1.578	0.925
83.33	-2.094	51.000	0.000	-2.094	-2.094	-0.418	2.091	-2.068	-2.098	-2.932	-2.095	-2.091	-1.702	0.841
84.03	-2.007	51.000	0.000	-2.003	-1.985	-0.510	2.004	-1.997	-2.014	-3.042	-2.003	-2.004	-1.773	0.757
84.72	-1.920	51.000	0.000	-1.916	-1.927	-0.597	1.916	1.359	-1.916	-3.099	-1.916	-1.916	1.154	0.659
85.42	-1.833	51.000	0.000	-1.837	-1.839	-0.674	1.835	-1.978	-1.831	3.095	-1.839	-1.835	-1.792	0.575
86.11	-1.745	51.000	0.000	-1.747	-1.748	-0.754	1.743	-2.035	-1.746	3.005	-1.759	-1.743	-1.735	0.490
86.81	-1.658	51.000	0.000	-1.656	-1.668	-0.843	1.656	-2.119	-1.651	2.925	-1.670	-1.656	-1.651	0.394
87.50	-1.571	51.000	0.000	-1.572	-1.569	-0.931	1.572	-2.218	-1.572	2.826	-1.583	-1.572	-1.552	0.315
88.19	-1.484	51.000	0.000	-1.482	-1.482	-1.033	1.489	-2.298	-1.486	2.739	-1.481	-1.489	-1.472	0.229
88.89	-1.396	51.000	0.000	-1.394	-1.390	-1.156	1.397	-2.367	-1.403	2.647	-1.357	-1.397	-1.403	0.146
89.58	-1.309	51.000	0.000	-1.311	-1.310	-1.185	1.313	-2.464	-1.312	2.566	-1.328	-1.313	-1.306	0.056
90.28	-1.222	51.000	0.000	-1.219	-1.216	1.786	1.221	-2.550	-1.218	2.473	1.984	-1.221	-1.220	-0.039
90.97	-1.134	51.000	0.000	-1.133	-1.135	-1.133	1.137	-2.642	-1.129	2.391	-1.380	-1.137	-1.128	-0.128
91.67	-1.047	51.000	0.000	-1.042	-1.041	-1.032	1.042	-2.724	-1.056	2.298	-1.482	-1.042	-1.046	-0.201
92.36	-0.960	51.000	0.000	-0.959	-0.950	-0.981	0.959	-2.811	-0.966	2.207	-1.532	-0.959	-0.959	-0.291
93.06	-0.873	51.000	0.000	-0.875	-0.868	-0.875	0.869	-2.893	-0.889	2.125	-1.638	-0.869	-0.877	-0.368
93.75	-0.785	51.000	0.000	-0.786	-0.779	-0.786	0.783	-2.984	-0.819	2.035	-1.728	-0.783	-0.786	-0.437
94.44	-0.698	51.000	0.000	-0.704	-0.700	-0.720	0.708	-3.072	2.604	1.956	-1.793	-0.708	-0.698	2.422
95.14	-0.611	51.000	0.000	-0.611	-0.598	-0.615	0.618	3.120	-0.768	1.855	-1.898	-0.618	-0.607	-0.488
95.83	-0.524	51.000	0.000	-0.527	-0.517	-0.533	0.535	3.036	-0.772	1.773	-1.981	-0.535	-0.522	-0.484
96.53	-0.436	51.000	0.000	-0.432	-0.434	-0.429	0.442	2.946	-0.851	1.691	-2.085	-0.442	-0.432	-0.406
97.22	-0.349	51.000	0.000	-0.352	-0.348	-0.352	0.355	2.860	-0.901	1.604	-2.161	-0.355	-0.347	-0.356
97.92	-0.262	51.000	0.000	-0.263	-0.255	-0.267	0.268	2.777	-1.006	1.512	-2.246	-0.268	-0.263	-0.251
98.61	-0.175	51.000	0.000	-0.176	-0.169	-0.180	0.210	2.689	-1.098	1.426	-2.333	-0.210	-0.176	-0.158
99.31	-0.087	51.000	0.000	-0.081	-0.070	-0.096	0.167	2.595	-1.184	1.327	-2.418	-0.167	-0.081	-0.072
100.00	0.000	51.000	0.000	0.003	-0.005	0.002	0.114	2.509	-1.259	1.262	-2.515	-0.114	0.004	0.003
