percent	ang_W	r	phase	choose_angle	delta_1_x_5	delta_2_x_1	delta_3_x_2	delta_4_x_3	delta_5_x_4	delta_5_x_1	delta_1_x_2	delta_2_x_3	delta_3_x_4	delta_4_x_5
0.00	0.000	51.000	0.000	-0.010	-0.010	-0.002	3.099	2.527	-1.265	1.266	-2.512	-3.099	-0.014	0.008
0.69	0.087	51.000	0.000	0.090	0.084	0.090	0.140	2.413	-1.336	1.173	-2.603	-0.140	0.100	0.079
1.39	0.175	51.000	0.000	0.169	0.181	0.168	0.169	2.337	-1.422	1.076	-2.681	-0.169	0.176	0.166
2.08	0.262	51.000	0.000	0.250	0.240	0.269	0.247	2.246	-1.507	1.017	-2.782	-0.247	0.267	0.250
2.78	0.349	51.000	0.000	0.347	0.349	0.347	0.347	2.167	-1.604	0.907	-2.860	-0.347	0.347	0.348
3.47	0.436	51.000	0.000	0.446	0.459	0.448	0.414	2.080	-1.703	0.797	-2.961	-0.414	0.434	0.446
4.17	0.524	51.000	0.000	0.524	-2.480	0.524	0.512	1.989	-1.780	-2.547	-3.037	-0.512	0.524	0.524
4.86	0.611	51.000	0.000	0.609	0.538	0.613	0.607	1.909	-1.868	0.718	-3.126	-0.607	0.604	0.611
5.56	0.698	51.000	0.000	0.700	0.490	0.694	0.703	1.813	-1.946	0.767	3.076	-0.703	0.700	0.689
6.25	0.785	51.000	0.000	0.778	0.411	0.791	0.776	1.741	-2.035	0.845	2.979	-0.776	0.773	0.778
6.94	0.873	51.000	0.000	0.882	0.399	0.884	0.879	1.618	-2.139	0.858	2.886	-0.879	0.896	0.882
7.64	0.960	51.000	0.000	0.955	0.304	0.965	0.955	1.527	-2.211	0.953	2.805	-0.955	0.986	0.954
8.33	1.047	51.000	0.000	1.044	0.236	1.044	1.043	1.470	-2.310	1.020	2.726	-1.043	1.044	1.053
9.03	1.134	51.000	0.000	1.139	0.148	1.141	1.122	1.366	-2.395	1.109	2.629	-1.122	1.147	1.139
9.72	1.222	51.000	0.000	1.220	0.035	1.232	1.206	1.370	-2.476	1.221	2.537	-1.206	1.143	1.219
10.42	1.309	51.000	0.000	1.310	-0.060	1.300	1.311	1.380	-2.564	1.316	2.470	-1.311	1.133	1.308
11.11	1.396	51.000	0.000	1.384	-0.140	1.416	1.384	1.321	-2.640	1.397	2.354	-1.384	1.192	1.384
11.81	1.484	51.000	0.000	1.484	-0.228	1.506	1.491	1.389	-2.739	1.484	2.264	-1.491	1.124	1.482
12.50	1.571	51.000	0.000	1.567	-0.327	1.627	1.565	1.564	-2.823	1.584	2.143	-1.565	0.950	1.567
13.19	1.658	51.000	0.000	1.664	-0.407	1.731	1.674	1.595	-2.918	1.664	2.039	-1.674	0.919	1.661
13.89	1.745	51.000	0.000	1.752	-0.498	1.713	1.749	1.754	-2.993	1.755	2.057	-1.749	0.759	1.737
14.58	1.833	51.000	0.000	1.829	-0.570	1.792	1.836	1.821	-3.089	1.827	1.978	-1.836	0.692	1.832
15.28	1.920	51.000	0.000	1.921	-0.684	-1.117	1.898	1.951	3.126	1.941	-1.396	-1.898	0.562	1.901
15.97	2.007	51.000	0.000	2.015	-0.766	1.726	2.015	2.015	3.036	2.023	2.044	-2.015	0.498	1.991
16.67	2.094	51.000	0.000	2.092	-0.839	1.692	2.085	2.102	2.935	2.096	2.078	-2.085	0.412	2.092
17.36	2.182	51.000	0.000	2.199	-0.917	1.549	2.199	2.183	2.810	2.174	2.221	-2.199	0.330	2.217
18.06	2.269	51.000	0.000	2.272	-1.013	1.490	2.272	2.272	2.755	2.269	2.280	-2.272	0.241	2.271
18.75	2.356	51.000	0.000	2.366	-1.081	1.372	2.371	2.361	-0.668	2.338	2.398	-2.371	0.152	-0.589
19.44	2.443	51.000	0.000	2.456	-1.188	1.305	2.463	2.450	-0.706	2.445	2.464	-2.463	0.064	-0.551
20.14	2.531	51.000	0.000	2.533	-1.263	1.224	2.548	2.521	-0.692	2.520	2.545	-2.548	-0.008	-0.564
20.83	2.618	51.000	0.000	2.618	-1.358	1.136	2.626	2.621	2.614	2.614	2.633	-2.626	-0.108	2.412
21.53	2.705	51.000	0.000	2.708	-1.448	1.052	2.708	2.701	2.760	2.704	2.718	-2.708	-0.187	2.267
22.22	2.793	51.000	0.000	2.793	-1.517	0.946	2.828	2.793	2.785	2.774	2.824	-2.828	-0.279	2.242
22.92	2.880	51.000	0.000	2.881	-1.599	0.872	2.881	2.886	2.849	2.856	2.897	-2.881	-0.373	2.178
23.61	2.967	51.000	0.000	2.977	-1.716	0.793	2.988	2.965	2.991	2.972	2.977	-2.988	-0.452	2.035
24.31	3.054	51.000	0.000	3.055	-1.790	0.706	3.035	3.067	3.042	3.047	3.064	-3.035	-0.554	1.985
25.00	3.142	51.000	0.000	3.139	-1.889	0.639	2.980	-3.129	3.130	-3.137	3.131	-2.980	-0.641	1.896
25.69	-3.054	51.000	0.000	-3.055	-1.977	0.547	3.027	-3.054	-3.057	-3.050	-3.060	-3.027	-0.716	1.800
26.39	-2.967	51.000	0.000	-2.968	-2.046	0.465	2.881	-2.964	-2.968	-2.980	-2.978	-2.881	-0.806	1.712
27.08	-2.880	51.000	0.000	-2.883	-2.145	0.370	2.897	-2.876	-2.894	-2.881	-2.883	-2.897	-0.893	1.637
27.78	-2.793	51.000	0.000	-2.788	-2.262	0.276	2.788	-2.797	-2.774	-2.764	-2.789	-2.788	-0.973	1.518
28.47	-2.705	51.000	0.000	-2.688	-2.392	0.202	2.684	-2.693	-2.703	-2.634	-2.715	-2.684	-1.077	1.446
29.17	-2.618	51.000	0.000	-2.617	-2.390	0.119	2.587	-2.606	-2.628	-2.637	-2.633	-2.587	-1.164	1.371
29.86	-2.531	51.000	0.000	-2.539	-2.327	0.007	2.539	-2.545	-2.533	-2.700	-2.520	-2.539	-1.224	1.277
30.56	-2.443	51.000	0.000	-2.445	-2.418	-0.067	2.441	-2.450	-2.443	-2.609	-2.446	-2.441	-1.320	1.187
31.25	-2.356	51.000	0.000	-2.356	0.565	-0.153	2.352	-2.372	-2.335	0.692	-2.360	-2.352	-1.398	1.078
31.94	-2.269	51.000	0.000	-2.269	-2.276	-0.234	2.255	-2.259	-2.269	-2.751	-2.279	-2.255	-1.511	1.012
32.64	-2.182	51.000	0.000	-2.182	-2.178	-0.336	2.188	-2.188	-2.182	-2.849	-2.177	-2.188	-1.582	0.926
33.33	-2.094	51.000	0.000	-2.094	-2.064	-0.420	2.093	-2.100	-2.104	-2.962	-2.094	-2.093	-1.670	0.847
34.03	-2.007	51.000	0.000	-2.010	-2.025	-0.493	2.007	-1.922	-2.014	-3.001	-2.020	-2.007	-1.848	0.757
34.72	-1.920	51.000	0.000	-1.927	-1.938	-0.582	1.913	1.407	-1.922	-3.088	-1.931	-1.913	1.106	0.665
35.42	-1.833	51.000	0.000	-1.836	-1.838	-0.671	1.834	-1.991	-1.831	3.095	-1.842	-1.834	-1.779	0.575
36.11	-1.745	51.000	0.000	-1.761	-1.762	-0.753	1.734	-1.945	-1.737	3.018	-1.760	-1.734	-1.825	0.480
36.81	-1.658	51.000	0.000	-1.664	-1.664	-0.850	1.665	-2.150	-1.653	2.921	-1.664	-1.665	-1.620	0.396
37.50	-1.571	51.000	0.000	-1.574	-1.565	-0.946	1.580	-2.195	-1.589	2.821	-1.567	-1.580	-1.574	0.332
38.19	-1.484	51.000	0.000	-1.494	-1.473	-1.088	1.494	-2.276	-1.499	2.730	-1.425	-1.494	-1.494	0.242
38.89	-1.396	51.000	0.000	-1.382	-1.397	1.806	1.407	-2.408	-1.368	2.653	1.964	-1.407	-1.362	0.111
39.58	-1.309	51.000	0.000	-1.306	-1.309	-1.076	1.304	-2.477	-1.311	2.565	-1.438	-1.304	-1.293	0.055
40.28	-1.222	51.000	0.000	-1.229	-1.229	-1.178	1.229	-2.543	-1.230	2.486	-1.335	-1.229	-1.226	-0.026
40.97	-1.134	51.000	0.000	-1.132	-1.124	-1.172	1.114	-2.620	-1.132	2.380	-1.341	-1.114	-1.150	-0.125
41.67	-1.047	51.000	0.000	-1.048	-1.054	-1.056	1.046	-2.722	-1.023	2.310	-1.457	-1.046	-1.048	-0.233
42.36	-0.960	51.000	0.000	-0.964	-0.949	-0.964	0.968	-2.824	-0.978	2.205	-1.549	-0.968	-0.946	-0.278
43.06	-0.873	51.000	0.000	-0.880	-0.879	-0.915	0.887	-2.890	-0.854	2.136	-1.599	-0.887	-0.880	-0.402
43.75	-0.785	51.000	0.000	-0.795	-0.790	-0.795	0.807	-2.982	-0.831	2.047	-1.718	-0.807	-0.788	-0.426
44.44	-0.698	51.000	0.000	-0.701	-0.684	-0.701	0.693	-3.069	-0.792	1.941	-1.812	-0.693	-0.701	-0.465
45.14	-0.611	51.000	0.000	-0.613	-0.604	-0.632	0.609	3.131	2.556	1.861	-1.881	-0.609	-0.618	2.470
45.83	-0.524	51.000	0.000	-0.546	-0.512	-0.549	0.547	3.029	-0.712	1.768	-1.964	-0.547	-0.516	-0.544
46.53	-0.436	51.000	0.000	-0.440	-0.440	-0.445	0.473	2.946	-0.834	1.696	-2.069	-0.473	-0.432	-0.422
47.22	-0.349	51.000	0.000	-0.345	-0.349	-0.342	0.345	2.860	-0.915	1.606	-2.171	-0.345	-0.347	-0.342
47.92	-0.262	51.000	0.000	-0.269	-0.258	-0.269	0.317	2.757	-0.979	1.515	-2.244	-0.317	-0.244	-0.277
48.61	-0.175	51.000	0.000	-0.175	-0.179	-0.175	0.232	2.686	-1.096	1.435	-2.339	-0.232	-0.172	-0.160
49.31	-0.087	51.000	0.000	-0.081	-0.088	-0.076	0.081	2.594	-1.174	1.345	-2.437	-0.081	-0.081	-0.083
50.00	0.000	51.000	0.000	0.033	0.047	-0.027	0.156	2.512	-1.276	1.210	-2.486	-0.156	0.001	0.020
50.69	0.087	51.000	0.000	0.087	0.087	0.093	0.067	2.431	-1.357	1.170	-2.606	-0.067	0.082	0.100
51.39	0.175	51.000	0.000	0.183	0.207	0.174	0.183	2.332	-1.444	1.050	-2.688	-0.183	0.181	0.187
52.08	0.262	51.000	0.000	0.263	0.259	0.259	0.282	2.250	-1.519	0.998	-2.773	-0.282	0.263	0.263
52.78	0.349	51.000	0.000	0.345	0.322	0.353	0.345	2.163	-1.598	0.935	-2.867	-0.345	0.350	0.342
53.47	0.436	51.000	0.000	0.441	0.453	0.444	0.394	2.092	-1.698	0.804	-2.957	-0.394	0.421	0.441
54.17	0.524	51.000	0.000	0.531	-2.410	0.528	0.527	1.979	-1.791	-2.617	-3.041	-0.527	0.534	0.535
54.86	0.611	51.000	0.000	0.610	-2.351	0.612	0.608	1.918	-1.891	-2.676	-3.125	-0.608	0.595	0.634
55.56	0.698	51.000	0.000	0.709	0.442	0.711	0.699	1.804	-1.946	0.815	3.059	-0.699	0.709	0.689
56.25	0.785	51.000	0.000	0.786	0.454	0.784	0.787	1.736	-2.043	0.802	2.986	-0.787	0.778	0.786
56.94	0.873	51.000	0.000	0.862	0.350	0.861	0.867	1.674	-2.119	0.907	2.909	-0.867	0.839	0.862
57.64	0.960	51.000	0.000	0.953	0.304	0.974	0.945	1.560	-2.220	0.952	2.796	-0.945	0.953	0.964
58.33	1.047	51.000	0.000	1.033	0.256	1.033	1.051	1.482	-2.318	1.001	2.737	-1.051	1.031	1.062
59.03	1.134	51.000	0.000	1.127	0.140	1.148	1.120	1.386	-2.397	1.117	2.622	-1.120	1.127	1.140
59.72	1.222	51.000	0.000	1.228	0.020	1.226	1.224	1.419	-2.487	1.237	2.544	-1.224	1.094	1.231
60.42	1.309	51.000	0.000	1.311	-0.071	1.316	1.307	-1.967	-2.550	1.327	2.454	-1.307	-1.803	1.293
61.11	1.396	51.000	0.000	1.398	-0.150	1.410	1.387	1.423	-2.647	1.406	2.360	-1.387	1.090	1.391
61.81	1.484	51.000	0.000	1.490	-0.221	1.477	1.494	1.490	-2.757	1.477	2.293	-1.494	1.023	1.500
62.50	1.571	51.000	0.000	1.573	-0.316	1.606	1.577	1.523	-2.829	1.573	2.164	-1.577	0.990	1.572
63.19	1.658	51.000	0.000	1.652	-0.417	1.744	1.652	1.609	-2.887	1.673	2.026	-1.652	0.904	1.631
63.89	1.745	51.000	0.000	1.762	-0.487	1.685	1.757	1.770	-3.023	1.743	2.085	-1.757	0.744	1.767
64.58	1.833	51.000	0.000	1.834	-0.561	1.852	1.832	1.810	-3.092	1.818	1.917	-1.832	0.703	1.836
65.28	1.920	51.000	0.000	1.927	-0.674	-1.141	1.912	1.939	3.104	1.931	-1.372	-1.912	0.575	1.922
65.97	2.007	51.000	0.000	2.008	-0.752	1.759	2.005	2.010	3.022	2.008	2.011	-2.005	0.503	2.005
66.67	2.094	51.000	0.000	2.103	-0.825	1.648	2.103	2.093	2.899	2.082	2.122	-2.103	0.420	2.128
67.36	2.182	51.000	0.000	2.169	-0.925	1.609	2.169	2.177	2.868	2.182	2.161	-2.169	0.336	2.159
68.06	2.269	51.000	0.000	2.258	-1.039	1.576	2.266	2.258	2.805	2.295	2.194	-2.266	0.255	2.222
68.75	2.356	51.000	0.000	2.371	-1.092	1.395	2.349	2.371	2.621	2.349	2.375	-2.349	0.142	2.406
69.44	2.443	51.000	0.000	2.446	-1.189	1.312	2.439	2.453	2.629	2.446	2.458	-2.439	0.060	2.398
70.14	2.531	51.000	0.000	2.534	-1.273	1.231	2.539	2.528	2.574	2.529	2.539	-2.539	-0.015	2.452
70.83	2.618	51.000	0.000	2.611	-1.367	1.166	2.609	2.614	2.653	2.624	2.603	-2.609	-0.100	2.374
71.53	2.705	51.000	0.000	2.704	-1.447	1.061	2.735	2.695	2.701	2.704	2.709	-2.735	-0.182	2.325
72.22	2.793	51.000	0.000	2.785	-1.529	0.984	2.756	2.807	2.742	2.785	2.785	-2.756	-0.294	2.285
72.92	2.880	51.000	0.000	2.879	-1.605	0.870	2.911	2.879	2.870	2.862	2.900	-2.911	-0.366	2.157
73.61	2.967	51.000	0.000	2.973	-1.724	0.793	0.109	2.970	2.954	2.981	2.977	-0.109	-0.457	2.073
74.31	3.054	51.000	0.000	3.058	-1.801	0.722	3.086	3.059	3.033	3.058	3.047	-3.086	-0.546	1.994
75.00	3.142	51.000	0.000	-3.141	-1.900	0.638	3.092	3.139	-3.137	-3.127	3.132	-3.092	-0.626	1.880
75.69	-3.054	51.000	0.000	-3.050	-1.979	0.529	0.137	-3.052	-3.054	-3.048	-3.042	-0.137	-0.718	1.798
76.39	-2.967	51.000	0.000	-2.982	-2.044	0.450	3.031	-2.967	-2.983	-2.982	-2.963	-3.031	-0.803	1.727
77.08	-2.880	51.000	0.000	-2.881	-2.145	0.363	2.900	-2.888	-2.873	-2.881	-2.876	-2.900	-0.882	1.616
77.78	-2.793	51.000	0.000	-2.785	-2.194	0.272	2.762	-2.800	-2.777	-2.833	-2.785	-2.762	-0.970	1.521
78.47	-2.705	51.000	0.000	-2.717	-2.287	0.183	2.728	-2.702	-2.717	-2.740	-2.696	-2.728	-1.068	1.460
79.17	-2.618	51.000	0.000	-2.610	-2.389	0.109	2.598	-2.597	-2.628	-2.637	-2.622	-2.598	-1.173	1.372
79.86	-2.531	51.000	0.000	-2.530	-2.344	0.017	2.526	-2.524	-2.547	-2.683	-2.530	-2.526	-1.246	1.290
80.56	-2.443	51.000	0.000	-2.442	0.535	-0.054	2.417	-2.457	-2.426	0.722	-2.459	-2.417	-1.313	1.170
81.25	-2.356	51.000	0.000	-2.392	-2.480	-0.163	2.381	-2.403	-2.334	-2.546	-2.350	-2.381	-1.367	1.077
81.94	-2.269	51.000	0.000	-2.274	-2.265	-0.240	2.278	-2.288	-2.274	-2.762	-2.273	-2.278	-1.481	1.017
82.64	-2.182	51.000	0.000	-2.190	-2.190	-0.338	2.195	-2.196	-2.181	-2.837	-2.175	-2.195	-1.574	0.924
83.33	-2.094	51.000	0.000	-2.079	-2.067	-0.434	2.099	-2.035	-2.109	-2.960	-2.079	-2.099	-1.735	0.853
84.03	-2.007	51.000	0.000	-2.008	-2.017	-0.497	1.983	1.367	-2.000	-3.010	-2.016	-1.983	1.146	0.743
84.72	-1.920	51.000	0.000	-1.909	-1.915	-0.606	1.909	1.364	-1.910	-3.111	-1.907	-1.909	1.150	0.653
85.42	-1.833	51.000	0.000	-1.833	-1.844	-0.675	1.827	-2.027	-1.813	3.101	-1.838	-1.827	-1.743	0.556
86.11	-1.745	51.000	0.000	-1.744	-1.745	-0.765	1.743	-2.056	-1.739	3.001	-1.748	-1.743	-1.714	0.482
86.81	-1.658	51.000	0.000	-1.647	-1.647	-0.888	1.648	-2.114	-1.641	2.903	-1.626	-1.648	-1.656	0.385
87.50	-1.571	51.000	0.000	-1.598	-1.598	-0.897	1.554	-2.141	-1.561	2.855	-1.616	-1.554	-1.629	0.305
88.19	-1.484	51.000	0.000	-1.472	-1.504	-1.042	1.493	-2.303	-1.461	2.761	-1.472	-1.493	-1.467	0.204
88.89	-1.396	51.000	0.000	-1.388	-1.395	-1.143	1.394	-2.380	-1.386	2.652	-1.370	-1.394	-1.390	0.129
89.58	-1.309	51.000	0.000	-1.307	-1.313	-1.177	1.305	-2.461	-1.300	2.569	-1.336	-1.305	-1.309	0.044
90.28	-1.222	51.000	0.000	-1.226	-1.217	1.825	1.212	-2.524	-1.235	2.474	1.945	-1.212	-1.246	-0.022
90.97	-1.134	51.000	0.000	-1.145	-1.129	1.805	1.137	-2.617	-1.153	2.386	1.965	-1.137	-1.153	-0.103
91.67	-1.047	51.000	0.000	-1.056	-1.036	-1.144	1.064	-2.731	-1.056	2.293	-1.370	-1.064	-1.039	-0.201
92.36	-0.960	51.000	0.000	-0.965	-0.966	-0.939	0.965	-2.813	-0.967	2.222	-1.574	-0.965	-0.957	-0.290
93.06	-0.873	51.000	0.000	-0.878	-0.878	-0.881	0.881	-2.894	-0.876	2.134	-1.632	-0.881	-0.876	-0.381
93.75	-0.785	51.000	0.000	-0.789	-0.789	-0.766	0.807	-2.986	-0.884	2.045	-1.747	-0.807	-0.784	-0.373
94.44	-0.698	51.000	0.000	-0.702	-0.707	-0.697	0.706	-3.081	2.644	1.964	-1.816	-0.706	-0.689	2.383
95.14	-0.611	51.000	0.000	-0.610	-0.607	-0.609	0.613	3.124	-0.737	1.864	-1.904	-0.613	-0.611	-0.520
95.83	-0.524	51.000	0.000	-0.520	-0.509	-0.529	0.543	3.023	-0.780	1.765	-1.984	-0.543	-0.510	-0.477
96.53	-0.436	51.000	0.000	-0.424	-0.417	-0.441	0.424	2.954	-0.876	1.674	-2.072	-0.424	-0.441	-0.380
97.22	-0.349	51.000	0.000	-0.352	-0.336	-0.363	0.370	2.865	-0.942	1.593	-2.150	-0.370	-0.352	-0.315
97.92	-0.262	51.000	0.000	-0.271	-0.245	-0.272	0.282	2.784	-1.046	1.501	-2.241	-0.282	-0.271	-0.211
98.61	-0.175	51.000	0.000	-0.173	-0.166	-0.182	0.218	2.686	-1.097	1.422	-2.332	-0.218	-0.173	-0.160
99.31	-0.087	51.000	0.000	-0.092	-0.078	-0.092	0.171	2.576	-1.148	1.335	-2.422	-0.171	-0.063	-0.108
100.00	0.000	51.000	0.000	0.004	-0.029	0.002	0.121	2.509	-1.236	1.285	-2.515	-0.121	0.004	-0.021
