percent	ang_W	r	phase	choose_angle	delta_1_x_3	delta_2_x_1	delta_3_x_2	delta_3_x_1	delta_1_x_2	delta_2_x_3
0.00	0.000	51.000	0.000	0.029	0.042	2.932	-2.110	2.053	-2.932	0.016
0.69	0.087	51.000	0.000	0.076	0.014	0.333	-2.170	2.080	-0.333	0.076
1.39	0.175	51.000	0.000	0.162	0.189	2.891	-2.231	1.906	-2.891	0.136
2.08	0.262	51.000	0.000	0.223	0.254	0.065	-2.317	1.841	-0.065	0.223
2.78	0.349	51.000	0.000	0.260	0.290	0.157	-2.354	1.804	-0.157	0.260
3.47	0.436	51.000	0.000	0.388	0.201	0.647	-2.483	1.893	-0.647	0.388
4.17	0.524	51.000	0.000	0.498	0.513	0.482	-2.592	1.581	-0.482	0.498
4.86	0.611	51.000	0.000	0.638	0.650	0.630	-2.732	1.444	-0.630	0.638
5.56	0.698	51.000	0.000	0.740	0.749	0.736	-2.834	1.346	-0.736	0.740
6.25	0.785	51.000	0.000	0.774	0.749	0.785	-2.869	1.346	-0.785	0.774
6.94	0.873	51.000	0.000	0.829	-2.007	0.813	-2.940	-2.182	-0.813	0.845
7.64	0.960	51.000	0.000	0.972	-1.852	0.954	-3.085	-2.336	-0.954	0.991
8.33	1.047	51.000	0.000	1.079	-1.811	1.055	3.087	-2.378	-1.055	1.102
9.03	1.134	51.000	0.000	1.169	-1.969	1.160	3.011	-2.220	-1.160	1.178
9.72	1.222	51.000	0.000	1.221	0.909	1.256	2.916	1.185	-1.256	1.273
10.42	1.309	51.000	0.000	1.297	0.850	1.349	2.801	1.244	-1.349	1.388
11.11	1.396	51.000	0.000	1.456	0.635	1.456	2.734	1.460	-1.456	1.454
11.81	1.484	51.000	0.000	1.434	0.544	1.434	2.833	1.550	-1.434	1.356
12.50	1.571	51.000	0.000	1.580	0.508	1.580	2.615	1.586	-1.580	1.574
13.19	1.658	51.000	0.000	1.728	0.395	1.728	2.409	1.700	-1.728	1.780
13.89	1.745	51.000	0.000	1.856	0.195	1.856	2.441	1.899	-1.856	1.747
14.58	1.833	51.000	0.000	1.865	0.260	1.896	-1.275	1.834	-1.896	-0.820
15.28	1.920	51.000	0.000	1.900	0.192	1.898	2.307	1.902	-1.898	1.882
15.97	2.007	51.000	0.000	1.978	0.153	2.015	-1.384	1.941	-2.015	-0.711
16.67	2.094	51.000	0.000	2.085	0.051	2.126	-1.424	2.044	-2.126	-0.670
17.36	2.182	51.000	0.000	2.154	-0.099	2.154	2.370	2.193	-2.154	1.819
18.06	2.269	51.000	0.000	2.199	-0.097	2.206	-1.169	2.191	-2.206	-0.926
18.75	2.356	51.000	0.000	2.343	-0.248	2.267	2.514	2.343	-2.267	1.675
19.44	2.443	51.000	0.000	2.450	-0.355	2.493	2.361	2.450	-2.493	1.827
20.14	2.531	51.000	0.000	2.625	-0.530	2.623	2.627	2.625	-2.623	1.562
20.83	2.618	51.000	0.000	2.627	-0.533	2.667	2.589	2.627	-2.667	1.600
21.53	2.705	51.000	0.000	2.683	-0.588	2.658	2.702	2.683	-2.658	1.487
22.22	2.793	51.000	0.000	2.819	-0.724	2.712	2.876	2.819	-2.712	1.313
22.92	2.880	51.000	0.000	2.859	-0.764	2.781	2.893	2.859	-2.781	1.295
23.61	2.967	51.000	0.000	2.977	-0.852	2.775	3.008	2.947	-2.775	1.181
24.31	3.054	51.000	0.000	3.026	-0.949	0.213	3.009	3.043	-0.213	1.180
25.00	3.142	51.000	0.000	-3.095	-1.106	0.196	-3.106	-3.083	-0.196	1.012
25.69	-3.054	51.000	0.000	-3.045	-1.120	2.832	-3.020	-3.069	-2.832	0.926
26.39	-2.967	51.000	0.000	-2.944	-1.192	2.793	-2.944	-2.997	-2.793	0.849
27.08	-2.880	51.000	0.000	-2.889	-1.230	2.731	-2.889	-2.959	-2.731	0.795
27.78	-2.793	51.000	0.000	-2.784	-1.379	2.739	-2.784	-2.809	-2.739	0.689
28.47	-2.705	51.000	0.000	-2.724	-1.477	2.742	-2.724	-2.712	-2.742	0.630
29.17	-2.618	51.000	0.000	-2.672	-1.473	2.620	-2.672	-2.716	-2.620	0.578
29.86	-2.531	51.000	0.000	-2.479	-1.684	2.464	-2.479	-2.505	-2.464	0.385
30.56	-2.443	51.000	0.000	-2.447	-1.639	2.387	-2.447	-2.549	-2.387	0.353
31.25	-2.356	51.000	0.000	-2.350	-1.888	2.366	-2.350	-2.301	-2.366	0.255
31.94	-2.269	51.000	0.000	-2.318	-1.713	2.256	-2.318	-2.476	-2.256	0.224
32.64	-2.182	51.000	0.000	-2.256	-1.672	2.162	-2.256	-2.517	-2.162	0.161
33.33	-2.094	51.000	0.000	-2.017	0.881	2.027	-2.007	1.213	-2.027	-0.087
34.03	-2.007	51.000	0.000	-1.977	-1.770	1.977	-2.032	-2.419	-1.977	-0.062
34.72	-1.920	51.000	0.000	-1.912	0.767	1.945	-1.879	1.328	-1.945	-0.215
35.42	-1.833	51.000	0.000	-1.904	-1.729	1.904	-1.966	-2.460	-1.904	-0.129
36.11	-1.745	51.000	0.000	-1.632	0.837	1.716	-1.549	1.257	-1.716	-0.546
36.81	-1.658	51.000	0.000	-1.646	-1.516	1.646	-1.752	-2.673	-1.646	-0.343
37.50	-1.571	51.000	0.000	-1.600	-1.614	1.600	-1.587	-2.574	-1.600	-0.508
38.19	-1.484	51.000	0.000	-1.446	-1.296	1.446	-1.653	-2.893	-1.446	-0.441
38.89	-1.396	51.000	0.000	-1.461	-1.480	1.461	-1.432	-2.709	-1.461	-0.662
39.58	-1.309	51.000	0.000	-1.271	-1.329	1.307	-1.236	-2.860	-1.307	-0.859
40.28	-1.222	51.000	0.000	-1.255	-1.271	1.265	-1.245	-2.918	-1.265	-0.849
40.97	-1.134	51.000	0.000	-1.096	-1.122	1.070	2.389	-3.067	-1.070	1.800
41.67	-1.047	51.000	0.000	-1.025	-1.060	0.990	2.443	-3.128	-0.990	1.746
42.36	-0.960	51.000	0.000	0.909	-0.999	0.909	2.476	3.093	-0.909	1.712
43.06	-0.873	51.000	0.000	-0.844	-0.844	0.830	-1.193	2.938	-0.830	-0.901
43.75	-0.785	51.000	0.000	-0.681	-0.727	0.636	2.212	2.822	-0.636	1.977
44.44	-0.698	51.000	0.000	-0.651	-0.651	0.813	-1.666	2.746	-0.813	-0.428
45.14	-0.611	51.000	0.000	-0.616	-0.616	0.544	-1.370	2.711	-0.544	-0.724
45.83	-0.524	51.000	0.000	-0.524	-0.524	0.377	-1.422	2.619	-0.377	-0.673
46.53	-0.436	51.000	0.000	-0.440	-0.440	0.452	-1.664	2.534	-0.452	-0.431
47.22	-0.349	51.000	0.000	-0.375	-0.375	0.361	-1.711	2.469	-0.361	-0.383
47.92	-0.262	51.000	0.000	-0.300	-0.300	0.357	-1.821	2.395	-0.357	-0.274
48.61	-0.175	51.000	0.000	3.142	-0.127	2.947	-1.934	2.221	-2.947	-0.161
49.31	-0.087	51.000	0.000	-0.049	-0.049	0.174	-2.062	2.143	-0.174	-0.032
50.00	0.000	51.000	0.000	0.025	0.040	2.915	-2.105	2.054	-2.915	0.010
50.69	0.087	51.000	0.000	0.154	0.211	2.726	-2.190	1.883	-2.726	0.096
51.39	0.175	51.000	0.000	0.203	0.180	0.275	-2.297	1.914	-0.275	0.203
52.08	0.262	51.000	0.000	0.288	0.243	0.384	-2.383	1.851	-0.384	0.288
52.78	0.349	51.000	0.000	0.387	0.437	3.032	-2.431	1.657	-3.032	0.336
53.47	0.436	51.000	0.000	0.471	0.485	0.455	-2.566	1.610	-0.455	0.471
54.17	0.524	51.000	0.000	0.565	0.497	0.625	-2.660	1.597	-0.625	0.565
54.86	0.611	51.000	0.000	0.559	0.529	0.585	-2.653	1.566	-0.585	0.559
55.56	0.698	51.000	0.000	0.669	0.616	0.701	-2.763	1.478	-0.701	0.669
56.25	0.785	51.000	0.000	0.733	0.698	0.750	-2.827	1.396	-0.750	0.733
56.94	0.873	51.000	0.000	0.949	0.766	0.991	-3.044	1.328	-0.991	0.949
57.64	0.960	51.000	0.000	0.920	-1.995	0.912	-3.022	-2.194	-0.912	0.927
58.33	1.047	51.000	0.000	1.002	-1.824	0.980	-3.118	-2.365	-0.980	1.024
59.03	1.134	51.000	0.000	1.133	0.991	1.163	3.019	1.103	-1.163	1.170
59.72	1.222	51.000	0.000	1.295	0.792	1.296	2.895	1.302	-1.296	1.294
60.42	1.309	51.000	0.000	1.372	0.767	1.372	2.797	1.328	-1.372	1.392
61.11	1.396	51.000	0.000	1.424	0.614	1.424	2.801	1.481	-1.424	1.388
61.81	1.484	51.000	0.000	1.518	0.677	1.518	2.590	1.418	-1.518	1.599
62.50	1.571	51.000	0.000	1.614	0.522	1.614	2.525	1.572	-1.614	1.664
63.19	1.658	51.000	0.000	1.647	0.453	1.647	2.535	1.641	-1.647	1.654
63.89	1.745	51.000	0.000	1.729	0.458	1.729	2.244	1.637	-1.729	1.945
64.58	1.833	51.000	0.000	1.771	0.244	1.771	2.560	1.850	-1.771	1.629
65.28	1.920	51.000	0.000	1.875	0.159	1.875	2.471	1.935	-1.875	1.718
65.97	2.007	51.000	0.000	2.059	0.035	2.058	2.152	2.059	-2.058	2.037
66.67	2.094	51.000	0.000	0.076	0.076	2.170	-1.559	2.018	-2.170	-0.535
67.36	2.182	51.000	0.000	2.056	-0.061	2.056	2.515	2.155	-2.056	1.674
68.06	2.269	51.000	0.000	2.281	-0.186	2.251	2.377	2.281	-2.251	1.812
68.75	2.356	51.000	0.000	2.441	-0.347	2.446	2.433	2.441	-2.446	1.756
69.44	2.443	51.000	0.000	2.429	-0.334	2.440	2.406	2.429	-2.440	1.782
70.14	2.531	51.000	0.000	2.494	-0.399	2.442	2.569	2.494	-2.442	1.620
70.83	2.618	51.000	0.000	2.557	-0.463	2.567	2.546	2.557	-2.567	1.643
71.53	2.705	51.000	0.000	2.766	-0.672	2.895	2.700	2.766	-2.895	1.489
72.22	2.793	51.000	0.000	2.872	-0.778	2.788	2.908	2.872	-2.788	1.280
72.92	2.880	51.000	0.000	2.939	-0.845	2.974	2.930	2.939	-2.974	1.259
73.61	2.967	51.000	0.000	3.017	-0.872	2.702	3.067	2.967	-2.702	1.122
74.31	3.054	51.000	0.000	3.127	-1.044	0.193	3.117	3.138	-0.193	1.072
75.00	3.142	51.000	0.000	-3.112	-1.057	2.879	-3.093	-3.132	-2.879	0.998
75.69	-3.054	51.000	0.000	-3.059	-1.110	2.867	-3.039	-3.078	-2.867	0.945
76.39	-2.967	51.000	0.000	-3.083	-1.091	2.909	-3.069	-3.098	-2.909	0.974
77.08	-2.880	51.000	0.000	-2.866	-1.220	2.661	-2.866	-2.969	-2.661	0.772
77.78	-2.793	51.000	0.000	-2.826	-1.331	2.763	-2.826	-2.857	-2.763	0.732
78.47	-2.705	51.000	0.000	-2.650	-1.439	2.541	-2.650	-2.750	-2.541	0.556
79.17	-2.618	51.000	0.000	-2.609	-1.714	2.738	-2.609	-2.474	-2.738	0.515
79.86	-2.531	51.000	0.000	-2.497	-1.729	2.520	-2.497	-2.460	-2.520	0.402
80.56	-2.443	51.000	0.000	-2.559	-1.536	2.480	-2.559	-2.653	-2.480	0.464
81.25	-2.356	51.000	0.000	-2.337	-1.917	2.355	-2.337	-2.271	-2.355	0.242
81.94	-2.269	51.000	0.000	-2.295	0.824	2.322	-2.268	1.270	-2.322	0.174
82.64	-2.182	51.000	0.000	-2.140	-1.923	2.133	-2.148	-2.266	-2.133	0.054
83.33	-2.094	51.000	0.000	-2.096	-2.060	2.096	-2.096	-2.129	-2.096	0.002
84.03	-2.007	51.000	0.000	-2.008	-1.828	2.008	-2.046	-2.360	-2.008	-0.049
84.72	-1.920	51.000	0.000	-1.852	0.961	1.872	-1.832	1.134	-1.872	-0.262
85.42	-1.833	51.000	0.000	-1.821	-1.708	1.821	-1.872	-2.481	-1.821	-0.222
86.11	-1.745	51.000	0.000	-1.729	-1.904	1.729	-1.648	-2.285	-1.729	-0.446
86.81	-1.658	51.000	0.000	-1.748	-1.800	1.748	-1.722	-2.389	-1.748	-0.373
87.50	-1.571	51.000	0.000	-1.626	-1.466	1.626	-1.765	-2.723	-1.626	-0.330
88.19	-1.484	51.000	0.000	-1.520	-1.519	1.520	-1.520	-2.669	-1.520	-0.574
88.89	-1.396	51.000	0.000	-1.436	-1.404	1.436	-1.486	-2.785	-1.436	-0.609
89.58	-1.309	51.000	0.000	1.289	-1.385	1.289	2.366	-2.804	-1.289	1.823
90.28	-1.222	51.000	0.000	-1.258	-1.280	1.235	2.272	-2.909	-1.235	1.917
90.97	-1.134	51.000	0.000	-1.142	-1.079	1.142	-1.387	-3.110	-1.142	-0.708
91.67	-1.047	51.000	0.000	-1.100	-1.045	1.100	-1.359	3.139	-1.100	-0.736
92.36	-0.960	51.000	0.000	1.096	-0.931	1.096	-1.597	3.025	-1.096	-0.498
93.06	-0.873	51.000	0.000	-0.859	-0.904	0.815	2.434	2.998	-0.815	1.755
93.75	-0.785	51.000	0.000	-0.737	-0.737	0.755	-1.395	2.831	-0.755	-0.700
94.44	-0.698	51.000	0.000	-0.703	-0.761	0.644	2.360	2.856	-0.644	1.829
95.14	-0.611	51.000	0.000	-0.651	-0.651	0.562	-1.278	2.746	-0.562	-0.816
95.83	-0.524	51.000	0.000	-0.500	-0.500	0.603	-1.691	2.595	-0.603	-0.404
96.53	-0.436	51.000	0.000	-0.383	-0.383	0.418	-1.733	2.478	-0.418	-0.362
97.22	-0.349	51.000	0.000	-0.336	-0.336	0.458	-1.828	2.431	-0.458	-0.267
97.92	-0.262	51.000	0.000	-0.340	-0.340	0.254	-1.715	2.434	-0.254	-0.379
98.61	-0.175	51.000	0.000	-0.285	-0.285	0.280	-1.807	2.380	-0.280	-0.288
99.31	-0.087	51.000	0.000	-0.115	-0.115	0.076	-1.975	2.210	-0.076	-0.120
100.00	0.000	51.000	0.000	0.018	0.018	2.831	-2.056	2.077	-2.831	-0.038
