percent	ang_W	r	phase	choose_angle	delta_1_x_3	delta_2_x_1	delta_3_x_2	delta_3_x_1	delta_1_x_2	delta_2_x_3
0.00	0.000	51.000	0.000	0.049	-0.002	0.095	-2.098	2.096	-0.095	0.003
0.69	0.087	51.000	0.000	0.082	0.088	3.028	-2.171	2.006	-3.028	0.077
1.39	0.175	51.000	0.000	0.184	0.173	0.226	-2.278	1.922	-0.226	0.184
2.08	0.262	51.000	0.000	0.251	0.243	0.273	-2.345	1.851	-0.273	0.251
2.78	0.349	51.000	0.000	0.347	0.342	0.356	-2.442	1.752	-0.356	0.347
3.47	0.436	51.000	0.000	0.459	0.475	0.439	-2.554	1.619	-0.439	0.459
4.17	0.524	51.000	0.000	0.527	0.511	0.542	-2.621	1.583	-0.542	0.527
4.86	0.611	51.000	0.000	0.612	0.633	0.596	-2.706	1.461	-0.596	0.612
5.56	0.698	51.000	0.000	0.708	0.746	0.689	-2.802	1.349	-0.689	0.708
6.25	0.785	51.000	0.000	0.776	0.766	0.780	-2.871	1.328	-0.780	0.776
6.94	0.873	51.000	0.000	0.857	0.847	0.859	-2.951	1.248	-0.859	0.857
7.64	0.960	51.000	0.000	0.952	-1.993	0.947	-3.052	-2.196	-0.947	0.958
8.33	1.047	51.000	0.000	1.048	0.918	1.053	-3.138	1.176	-1.053	1.043
9.03	1.134	51.000	0.000	1.112	0.930	1.115	3.079	1.164	-1.115	1.110
9.72	1.222	51.000	0.000	1.204	0.871	1.206	2.987	1.224	-1.206	1.202
10.42	1.309	51.000	0.000	1.320	0.736	1.320	2.884	1.358	-1.320	1.304
11.11	1.396	51.000	0.000	1.383	0.687	1.383	2.818	1.407	-1.383	1.371
11.81	1.484	51.000	0.000	1.480	0.596	1.480	2.723	1.499	-1.480	1.466
12.50	1.571	51.000	0.000	1.567	0.530	1.567	2.619	1.565	-1.567	1.570
13.19	1.658	51.000	0.000	1.653	0.447	1.653	2.529	1.647	-1.653	1.660
13.89	1.745	51.000	0.000	1.752	0.342	1.752	2.437	1.752	-1.752	1.752
14.58	1.833	51.000	0.000	1.845	0.282	1.826	2.325	1.812	-1.826	1.863
15.28	1.920	51.000	0.000	1.926	0.176	1.921	2.257	1.918	-1.921	1.932
15.97	2.007	51.000	0.000	2.011	0.083	2.010	2.187	2.011	-2.010	2.002
16.67	2.094	51.000	0.000	2.084	0.009	2.082	2.166	2.085	-2.082	2.022
17.36	2.182	51.000	0.000	2.197	-0.103	2.184	2.276	2.197	-2.184	1.913
18.06	2.269	51.000	0.000	2.229	-0.168	2.274	2.197	2.262	-2.274	1.992
18.75	2.356	51.000	0.000	2.341	-0.247	2.335	2.360	2.341	-2.335	1.829
19.44	2.443	51.000	0.000	2.450	-0.355	2.453	2.444	2.450	-2.453	1.745
20.14	2.531	51.000	0.000	2.534	-0.439	2.530	2.540	2.534	-2.530	1.649
20.83	2.618	51.000	0.000	2.610	-0.516	2.619	2.601	2.610	-2.619	1.587
21.53	2.705	51.000	0.000	2.690	-0.595	2.696	2.685	2.690	-2.696	1.503
22.22	2.793	51.000	0.000	2.802	-0.708	2.835	2.786	2.802	-2.835	1.403
22.92	2.880	51.000	0.000	2.873	-0.779	2.928	2.854	2.873	-2.928	1.334
23.61	2.967	51.000	0.000	2.976	-0.875	2.984	2.966	2.969	-2.984	1.223
24.31	3.054	51.000	0.000	3.052	-0.953	3.056	3.046	3.047	-3.056	1.142
25.00	3.142	51.000	0.000	3.134	-1.036	3.018	3.139	3.130	-3.018	1.050
25.69	-3.054	51.000	0.000	-3.065	-1.120	3.000	-3.061	-3.069	-3.000	0.966
26.39	-2.967	51.000	0.000	-2.981	-1.219	2.988	-2.973	-2.970	-2.988	0.878
27.08	-2.880	51.000	0.000	-2.889	-1.293	2.870	-2.889	-2.896	-2.870	0.795
27.78	-2.793	51.000	0.000	-2.801	-1.381	2.787	-2.801	-2.808	-2.787	0.706
28.47	-2.705	51.000	0.000	-2.696	-1.476	2.676	-2.696	-2.712	-2.676	0.602
29.17	-2.618	51.000	0.000	-2.627	-1.574	2.640	-2.627	-2.615	-2.640	0.533
29.86	-2.531	51.000	0.000	-2.530	-1.658	2.530	-2.530	-2.531	-2.530	0.436
30.56	-2.443	51.000	0.000	-2.465	-1.713	2.458	-2.465	-2.476	-2.458	0.370
31.25	-2.356	51.000	0.000	-2.358	-1.857	2.367	-2.358	-2.332	-2.367	0.264
31.94	-2.269	51.000	0.000	-2.236	-1.975	2.266	-2.258	-2.213	-2.266	0.163
32.64	-2.182	51.000	0.000	-2.174	-2.017	2.177	-2.177	-2.172	-2.177	0.082
33.33	-2.094	51.000	0.000	-2.094	0.900	2.100	-2.087	1.195	-2.100	-0.007
34.03	-2.007	51.000	0.000	-1.996	-1.973	1.995	-1.998	-2.216	-1.995	-0.097
34.72	-1.920	51.000	0.000	-1.921	-1.925	1.917	-1.915	-2.264	-1.917	-0.179
35.42	-1.833	51.000	0.000	-1.837	-1.846	1.828	-1.821	-2.343	-1.828	-0.273
36.11	-1.745	51.000	0.000	-1.750	-1.752	1.750	-1.749	-2.437	-1.750	-0.345
36.81	-1.658	51.000	0.000	-1.656	-1.677	1.656	-1.640	-2.512	-1.656	-0.454
37.50	-1.571	51.000	0.000	-1.586	-1.589	1.586	-1.583	-2.599	-1.586	-0.512
38.19	-1.484	51.000	0.000	-1.489	-1.510	1.489	-1.461	-2.679	-1.489	-0.633
38.89	-1.396	51.000	0.000	-1.412	-1.423	1.412	-1.390	-2.765	-1.412	-0.704
39.58	-1.309	51.000	0.000	-1.275	-1.331	1.309	-1.240	-2.858	-1.309	-0.854
40.28	-1.222	51.000	0.000	-1.182	-1.216	1.207	-1.157	-2.973	-1.207	-0.938
40.97	-1.134	51.000	0.000	-1.130	-1.127	1.133	-1.182	-3.062	-1.133	-0.913
41.67	-1.047	51.000	0.000	-1.049	-1.049	1.050	-1.088	-3.140	-1.050	-1.006
42.36	-0.960	51.000	0.000	-0.978	-0.977	0.979	-1.135	3.071	-0.979	-0.959
43.06	-0.873	51.000	0.000	-0.852	-0.852	0.881	-1.335	2.946	-0.881	-0.759
43.75	-0.785	51.000	0.000	-0.792	-0.792	0.799	-1.320	2.887	-0.799	-0.774
44.44	-0.698	51.000	0.000	-0.708	-0.708	0.720	-1.410	2.802	-0.720	-0.684
45.14	-0.611	51.000	0.000	-0.593	-0.593	0.607	-1.518	2.688	-0.607	-0.576
45.83	-0.524	51.000	0.000	-0.529	-0.529	0.507	-1.542	2.624	-0.507	-0.552
46.53	-0.436	51.000	0.000	-0.423	-0.423	0.387	-1.646	2.518	-0.387	-0.448
47.22	-0.349	51.000	0.000	-0.357	-0.357	0.373	-1.747	2.451	-0.373	-0.348
47.92	-0.262	51.000	0.000	-0.258	-0.258	0.246	-1.832	2.353	-0.246	-0.263
48.61	-0.175	51.000	0.000	-0.176	-0.176	0.189	-1.922	2.270	-0.189	-0.172
49.31	-0.087	51.000	0.000	-0.082	-0.082	0.085	-2.013	2.176	-0.085	-0.081
50.00	0.000	51.000	0.000	0.019	0.006	0.149	-2.113	2.088	-0.149	0.019
50.69	0.087	51.000	0.000	0.112	0.096	0.196	-2.206	1.998	-0.196	0.112
51.39	0.175	51.000	0.000	0.184	0.192	0.146	-2.278	1.903	-0.146	0.184
52.08	0.262	51.000	0.000	0.258	0.241	0.300	-2.352	1.853	-0.300	0.258
52.78	0.349	51.000	0.000	0.338	0.353	0.308	-2.432	1.742	-0.308	0.338
53.47	0.436	51.000	0.000	0.427	0.442	0.406	-2.521	1.653	-0.406	0.427
54.17	0.524	51.000	0.000	0.527	0.534	0.520	-2.622	1.560	-0.520	0.527
54.86	0.611	51.000	0.000	0.604	0.636	0.580	-2.698	1.458	-0.580	0.604
55.56	0.698	51.000	0.000	0.711	0.712	0.710	-2.805	1.382	-0.710	0.711
56.25	0.785	51.000	0.000	0.779	0.802	0.770	-2.873	1.292	-0.770	0.779
56.94	0.873	51.000	0.000	0.865	0.862	0.866	-2.960	1.233	-0.866	0.865
57.64	0.960	51.000	0.000	0.969	0.978	0.959	-3.055	1.116	-0.959	0.960
58.33	1.047	51.000	0.000	1.052	-2.066	1.052	3.137	-2.123	-1.052	1.052
59.03	1.134	51.000	0.000	1.121	0.883	1.127	3.074	1.211	-1.127	1.115
59.72	1.222	51.000	0.000	1.209	0.894	1.218	2.967	1.201	-1.218	1.222
60.42	1.309	51.000	0.000	1.305	0.786	1.306	2.884	1.308	-1.306	1.305
61.11	1.396	51.000	0.000	1.399	0.688	1.399	2.794	1.407	-1.399	1.395
61.81	1.484	51.000	0.000	1.478	0.622	1.478	2.706	1.472	-1.478	1.483
62.50	1.571	51.000	0.000	1.562	0.535	1.562	2.623	1.559	-1.562	1.565
63.19	1.658	51.000	0.000	1.639	0.435	1.639	2.575	1.659	-1.639	1.614
63.89	1.745	51.000	0.000	1.740	0.336	1.740	2.481	1.759	-1.740	1.708
64.58	1.833	51.000	0.000	1.825	0.270	1.825	2.363	1.824	-1.825	1.826
65.28	1.920	51.000	0.000	1.938	0.154	1.935	2.281	1.941	-1.935	1.908
65.97	2.007	51.000	0.000	1.998	0.100	2.002	-1.108	1.994	-2.002	-0.986
66.67	2.094	51.000	0.000	2.098	-0.002	2.099	-1.113	2.097	-2.099	-0.982
67.36	2.182	51.000	0.000	2.169	-0.071	2.173	-1.133	2.165	-2.173	-0.961
68.06	2.269	51.000	0.000	2.258	-0.163	2.262	2.237	2.258	-2.262	1.952
68.75	2.356	51.000	0.000	2.363	-0.269	2.377	2.325	2.363	-2.377	1.864
69.44	2.443	51.000	0.000	2.448	-0.353	2.471	2.403	2.448	-2.471	1.786
70.14	2.531	51.000	0.000	2.527	-0.432	2.535	2.515	2.527	-2.535	1.674
70.83	2.618	51.000	0.000	2.619	-0.525	2.622	2.616	2.619	-2.622	1.572
71.53	2.705	51.000	0.000	2.707	-0.612	2.703	2.710	2.707	-2.703	1.479
72.22	2.793	51.000	0.000	2.789	-0.695	2.795	2.786	2.789	-2.795	1.403
72.92	2.880	51.000	0.000	2.877	-0.782	2.880	2.875	2.877	-2.880	1.313
73.61	2.967	51.000	0.000	2.962	-0.857	2.973	2.946	2.951	-2.973	1.243
74.31	3.054	51.000	0.000	3.062	-0.964	3.003	3.065	3.058	-3.003	1.124
75.00	3.142	51.000	0.000	3.127	-1.038	0.133	3.122	3.132	-0.133	1.067
75.69	-3.054	51.000	0.000	-3.037	-1.150	3.005	-3.034	-3.039	-3.005	0.940
76.39	-2.967	51.000	0.000	-2.970	-1.218	2.963	-2.969	-2.971	-2.963	0.875
77.08	-2.880	51.000	0.000	-2.877	-1.295	2.834	-2.877	-2.894	-2.834	0.782
77.78	-2.793	51.000	0.000	-2.806	-1.368	2.777	-2.806	-2.821	-2.777	0.711
78.47	-2.705	51.000	0.000	-2.710	-1.482	2.715	-2.710	-2.706	-2.715	0.616
79.17	-2.618	51.000	0.000	-2.616	-1.562	2.606	-2.616	-2.627	-2.606	0.522
79.86	-2.531	51.000	0.000	-2.525	-1.651	2.515	-2.525	-2.538	-2.515	0.430
80.56	-2.443	51.000	0.000	-2.428	-1.719	2.406	-2.428	-2.469	-2.406	0.334
81.25	-2.356	51.000	0.000	-2.356	-1.817	2.351	-2.356	-2.372	-2.351	0.262
81.94	-2.269	51.000	0.000	-2.239	-1.975	2.275	-2.265	-2.214	-2.275	0.171
82.64	-2.182	51.000	0.000	-2.176	0.926	2.182	-2.170	1.169	-2.182	0.076
83.33	-2.094	51.000	0.000	-2.109	0.861	2.120	-2.099	1.233	-2.120	0.005
84.03	-2.007	51.000	0.000	-1.999	0.903	2.007	-1.990	1.191	-2.007	-0.104
84.72	-1.920	51.000	0.000	-1.938	-1.962	1.913	-1.903	-2.227	-1.913	-0.192
85.42	-1.833	51.000	0.000	-1.878	-1.909	1.847	-1.829	-2.280	-1.847	-0.266
86.11	-1.745	51.000	0.000	-1.734	-1.701	1.734	-1.753	-2.487	-1.734	-0.341
86.81	-1.658	51.000	0.000	-1.669	-1.729	1.669	-1.628	-2.460	-1.669	-0.466
87.50	-1.571	51.000	0.000	-1.570	-1.565	1.570	-1.575	-2.624	-1.570	-0.520
88.19	-1.484	51.000	0.000	-1.483	-1.486	1.483	-1.478	-2.703	-1.483	-0.616
88.89	-1.396	51.000	0.000	-1.404	-1.407	1.404	-1.399	-2.782	-1.404	-0.696
89.58	-1.309	51.000	0.000	-1.286	-1.302	1.296	-1.277	-2.887	-1.296	-0.817
90.28	-1.222	51.000	0.000	-1.233	-1.232	1.234	-1.242	-2.956	-1.234	-0.853
90.97	-1.134	51.000	0.000	-1.129	-1.127	1.131	-1.161	-3.062	-1.131	-0.934
91.67	-1.047	51.000	0.000	-1.037	-1.042	1.033	2.218	3.136	-1.033	1.971
92.36	-0.960	51.000	0.000	-0.950	-0.958	0.941	2.231	3.052	-0.941	1.958
93.06	-0.873	51.000	0.000	-0.856	-0.856	0.848	-1.205	2.950	-0.848	-0.889
93.75	-0.785	51.000	0.000	-0.788	-0.788	0.780	-1.281	2.883	-0.780	-0.813
94.44	-0.698	51.000	0.000	-0.717	-0.717	0.724	-1.390	2.811	-0.724	-0.704
95.14	-0.611	51.000	0.000	-0.604	-0.604	0.615	-1.506	2.698	-0.615	-0.589
95.83	-0.524	51.000	0.000	-0.521	-0.521	0.515	-1.567	2.615	-0.515	-0.527
96.53	-0.436	51.000	0.000	-0.447	-0.447	0.457	-1.655	2.542	-0.457	-0.439
97.22	-0.349	51.000	0.000	-0.349	-0.349	0.363	-1.754	2.443	-0.363	-0.341
97.92	-0.262	51.000	0.000	-0.262	-0.262	0.213	-1.817	2.356	-0.213	-0.278
98.61	-0.175	51.000	0.000	-0.170	-0.170	0.189	-1.929	2.264	-0.189	-0.165
99.31	-0.087	51.000	0.000	-0.076	-0.076	0.080	-2.019	2.170	-0.080	-0.075
100.00	0.000	51.000	0.000	0.005	0.007	3.052	-2.097	2.087	-3.052	0.003
