percent	ang_W	r	phase	choose_angle_GEOMETRIC	choose_angle_MSC_ULA	choose_angle_MSC_UCA	delta_1_x_3	delta_2_x_1	delta_3_x_2	delta_3_x_1	delta_1_x_2	delta_2_x_3
0.00	0.000	51.000	0.000	-0.115	3.047	-0.012	-0.115	0.205	-1.997	2.210	-0.205	-0.098
0.69	0.087	51.000	0.000	3.142	0.150	0.096	0.010	2.959	-2.085	2.084	-2.959	-0.009
1.39	0.175	51.000	0.000	0.208	0.131	0.166	0.170	0.318	-2.302	1.924	-0.318	0.208
2.08	0.262	51.000	0.000	0.207	0.267	0.257	0.210	0.193	-2.301	1.884	-0.193	0.207
2.78	0.349	51.000	0.000	0.334	0.347	0.351	0.334	0.336	-2.429	1.761	-0.336	0.334
3.47	0.436	51.000	0.000	0.494	0.419	0.431	0.366	0.633	-2.588	1.729	-0.633	0.494
4.17	0.524	51.000	0.000	0.599	0.525	0.494	0.617	0.585	-2.693	1.478	-0.585	0.599
4.86	0.611	51.000	0.000	0.612	0.595	0.606	0.824	0.479	-2.706	1.270	-0.479	0.612
5.56	0.698	51.000	0.000	0.694	0.693	0.672	0.847	0.627	-2.789	1.248	-0.627	0.694
6.25	0.785	51.000	0.000	0.777	0.784	0.771	0.709	0.806	-2.871	1.386	-0.806	0.777
6.94	0.873	51.000	0.000	0.844	0.892	0.866	-1.635	0.769	-3.013	-2.554	-0.769	0.919
7.64	0.960	51.000	0.000	0.956	0.969	0.962	0.765	0.998	-3.050	1.329	-0.998	0.956
8.33	1.047	51.000	0.000	1.010	1.066	1.044	0.839	1.022	-3.092	1.256	-1.022	0.998
9.03	1.134	51.000	0.000	1.117	1.148	1.136	-1.920	1.107	3.061	-2.269	-1.107	1.127
9.72	1.222	51.000	0.000	1.282	1.229	1.239	-1.809	1.242	2.866	-2.379	-1.242	1.323
10.42	1.309	51.000	0.000	1.407	1.325	1.319	-1.689	1.315	2.690	-2.500	-1.315	1.499
11.11	1.396	51.000	0.000	1.421	1.401	1.400	0.610	1.421	2.806	1.485	-1.421	1.382
11.81	1.484	51.000	0.000	1.476	1.497	1.482	0.459	1.476	2.836	1.635	-1.476	1.353
12.50	1.571	51.000	0.000	1.566	1.578	1.562	0.723	1.566	2.431	1.371	-1.566	1.757
13.19	1.658	51.000	0.000	1.665	1.669	1.663	0.384	1.665	2.585	1.711	-1.665	1.604
13.89	1.745	51.000	0.000	1.764	1.737	1.738	0.361	1.764	2.358	1.733	-1.764	1.830
14.58	1.833	51.000	0.000	1.824	1.848	1.833	0.214	1.824	2.489	1.880	-1.824	1.700
15.28	1.920	51.000	0.000	1.907	1.925	1.915	0.179	1.899	2.345	1.915	-1.899	1.844
15.97	2.007	51.000	0.000	1.997	2.004	2.019	0.097	1.997	2.198	1.997	-1.997	1.991
16.67	2.094	51.000	0.000	2.131	2.100	2.077	-0.004	2.163	-1.379	2.098	-2.163	-0.715
17.36	2.182	51.000	0.000	2.237	2.187	2.187	-0.143	2.129	2.542	2.237	-2.129	1.647
18.06	2.269	51.000	0.000	2.335	2.279	2.271	-0.240	2.243	2.541	2.335	-2.243	1.648
18.75	2.356	51.000	0.000	2.406	2.367	2.351	-0.268	2.450	-1.265	2.362	-2.450	-0.830
19.44	2.443	51.000	0.000	2.393	2.454	2.428	-0.298	2.368	2.447	2.393	-2.368	1.741
20.14	2.531	51.000	0.000	2.527	2.529	2.520	-0.433	2.497	2.567	2.527	-2.497	1.621
20.83	2.618	51.000	0.000	2.582	2.592	2.609	-0.488	2.581	2.583	2.582	-2.581	1.605
21.53	2.705	51.000	0.000	2.693	2.721	2.702	-0.669	0.139	2.621	2.764	-0.139	1.568
22.22	2.793	51.000	0.000	2.794	2.761	2.766	-0.700	2.669	2.868	2.794	-2.669	1.321
22.92	2.880	51.000	0.000	2.891	2.841	2.899	-0.796	2.651	3.005	2.891	-2.651	1.183
23.61	2.967	51.000	0.000	3.016	2.962	2.969	-0.930	0.116	3.007	3.024	-0.116	1.181
24.31	3.054	51.000	0.000	3.019	0.082	3.023	-0.929	0.051	3.013	3.024	-0.051	1.175
25.00	3.142	51.000	0.000	-3.139	3.051	-3.128	-0.999	2.717	-3.089	3.094	-2.717	0.994
25.69	-3.054	51.000	0.000	-3.114	3.005	-3.053	-1.067	2.974	-3.106	-3.122	-2.974	1.011
26.39	-2.967	51.000	0.000	-3.079	3.019	-2.988	-1.133	0.274	-3.102	-3.056	-0.274	1.007
27.08	-2.880	51.000	0.000	-2.814	2.833	-2.868	-1.437	0.307	-2.876	-2.752	-0.307	0.781
27.78	-2.793	51.000	0.000	-2.735	2.810	-2.810	-1.451	2.731	-2.735	-2.738	-2.731	0.641
28.47	-2.705	51.000	0.000	-2.664	2.695	-2.719	-1.528	2.667	-2.664	-2.661	-2.667	0.570
29.17	-2.618	51.000	0.000	-2.548	2.623	-2.599	-1.602	2.516	-2.548	-2.587	-2.516	0.453
29.86	-2.531	51.000	0.000	-2.452	2.527	-2.527	-1.693	2.427	-2.452	-2.496	-2.427	0.357
30.56	-2.443	51.000	0.000	-2.474	2.431	-2.433	-1.663	2.442	-2.474	-2.526	-2.442	0.380
31.25	-2.356	51.000	0.000	-2.395	2.365	-2.375	-1.687	2.341	-2.395	-2.502	-2.341	0.300
31.94	-2.269	51.000	0.000	-2.296	2.281	-2.257	0.844	2.320	-2.272	1.250	-2.320	0.177
32.64	-2.182	51.000	0.000	0.050	2.185	-2.180	0.692	2.223	-2.145	1.402	-2.223	0.050
33.33	-2.094	51.000	0.000	-2.037	2.112	-2.084	-1.797	2.037	-2.086	-2.392	-2.037	-0.008
34.03	-2.007	51.000	0.000	-2.017	2.005	-2.021	-1.962	2.013	-2.020	-2.226	-2.013	-0.074
34.72	-1.920	51.000	0.000	-1.857	1.927	-1.915	0.774	1.897	-1.818	1.320	-1.897	-0.276
35.42	-1.833	51.000	0.000	-1.833	1.834	-1.803	-1.883	1.783	-1.744	-2.306	-1.783	-0.350
36.11	-1.745	51.000	0.000	-1.762	1.766	-1.745	-1.728	1.762	-1.779	-2.461	-1.762	-0.315
36.81	-1.658	51.000	0.000	-1.658	1.681	-1.644	-1.643	1.658	-1.670	-2.546	-1.658	-0.424
37.50	-1.571	51.000	0.000	-1.569	1.602	-1.550	-1.596	1.569	-1.541	-2.593	-1.569	-0.553
38.19	-1.484	51.000	0.000	-1.484	1.491	-1.484	-1.501	1.484	-1.461	-2.687	-1.484	-0.634
38.89	-1.396	51.000	0.000	-1.384	1.391	-1.408	-1.358	1.384	-1.433	-2.831	-1.384	-0.661
39.58	-1.309	51.000	0.000	-1.269	1.314	-1.323	-1.212	1.269	-1.415	-2.977	-1.269	-0.679
40.28	-1.222	51.000	0.000	-1.248	1.234	-1.227	-1.248	1.248	-1.248	-2.941	-1.248	-0.846
40.97	-1.134	51.000	0.000	-1.130	1.143	-1.150	-1.157	1.103	2.389	-3.031	-1.103	1.800
41.67	-1.047	51.000	0.000	0.963	1.061	-1.042	-0.996	0.963	2.325	3.091	-0.963	1.864
42.36	-0.960	51.000	0.000	-0.881	0.979	-0.951	-0.881	0.970	-1.461	2.976	-0.970	-0.633
43.06	-0.873	51.000	0.000	-0.888	0.862	-0.904	-0.897	0.879	2.172	2.992	-0.879	2.017
43.75	-0.785	51.000	0.000	-0.825	0.792	-0.784	-0.825	0.812	-1.219	2.920	-0.812	-0.875
44.44	-0.698	51.000	0.000	-0.715	0.689	-0.709	-0.761	0.668	2.295	2.855	-0.668	1.894
45.14	-0.611	51.000	0.000	-0.564	0.614	-0.627	-0.564	0.436	-1.376	2.658	-0.436	-0.718
45.83	-0.524	51.000	0.000	-0.522	0.536	-0.511	-0.522	0.466	-1.516	2.617	-0.466	-0.579
46.53	-0.436	51.000	0.000	-0.416	0.428	-0.447	-0.416	0.348	-1.634	2.510	-0.348	-0.461
47.22	-0.349	51.000	0.000	-0.347	0.367	-0.342	-0.347	0.370	-1.760	2.441	-0.370	-0.334
47.92	-0.262	51.000	0.000	-0.276	0.272	-0.255	-0.276	0.463	-1.910	2.371	-0.463	-0.184
48.61	-0.175	51.000	0.000	-0.157	0.202	-0.157	-0.157	0.137	-1.933	2.252	-0.137	-0.161
49.31	-0.087	51.000	0.000	-0.106	3.049	-0.075	-0.147	0.397	-2.030	2.241	-0.397	-0.064
50.00	0.000	51.000	0.000	0.100	0.084	-0.021	-0.011	0.190	-2.104	2.105	-0.190	0.010
50.69	0.087	51.000	0.000	0.109	0.136	0.096	-0.000	0.444	-2.203	2.094	-0.444	0.109
51.39	0.175	51.000	0.000	0.168	0.237	0.187	0.149	0.240	-2.262	1.945	-0.240	0.168
52.08	0.262	51.000	0.000	0.244	0.230	0.284	0.271	2.966	-2.311	1.823	-2.966	0.217
52.78	0.349	51.000	0.000	0.299	0.387	0.368	0.290	0.321	-2.394	1.805	-0.321	0.299
53.47	0.436	51.000	0.000	0.459	0.461	0.422	0.496	0.411	-2.553	1.599	-0.411	0.459
54.17	0.524	51.000	0.000	0.519	0.557	0.527	0.493	0.546	-2.613	1.602	-0.546	0.519
54.86	0.611	51.000	0.000	0.631	0.635	0.625	0.568	0.676	-2.725	1.527	-0.676	0.631
55.56	0.698	51.000	0.000	0.686	0.710	0.693	0.624	0.722	-2.780	1.471	-0.722	0.686
56.25	0.785	51.000	0.000	0.799	0.796	0.766	-1.919	0.771	-2.921	-2.269	-0.771	0.826
56.94	0.873	51.000	0.000	0.906	0.888	0.864	-1.758	0.867	-3.039	-2.431	-0.867	0.945
57.64	0.960	51.000	0.000	1.007	0.967	0.951	0.927	1.011	-3.098	1.168	-1.011	1.003
58.33	1.047	51.000	0.000	1.000	1.061	1.038	-1.725	0.960	-3.135	-2.464	-0.960	1.041
59.03	1.134	51.000	0.000	1.103	1.147	1.145	-1.961	1.097	3.080	-2.228	-1.097	1.109
59.72	1.222	51.000	0.000	1.198	1.216	1.204	0.919	1.221	2.959	1.176	-1.221	1.230
60.42	1.309	51.000	0.000	1.361	1.314	1.323	0.659	1.361	2.866	1.435	-1.361	1.323
61.11	1.396	51.000	0.000	1.480	1.419	1.388	0.624	1.480	2.702	1.470	-1.480	1.487
61.81	1.484	51.000	0.000	1.465	1.492	1.494	0.554	1.465	2.779	1.541	-1.465	1.410
62.50	1.571	51.000	0.000	1.493	1.585	1.571	0.429	1.493	2.836	1.666	-1.493	1.353
63.19	1.658	51.000	0.000	1.578	1.665	1.663	0.607	1.669	-1.126	1.487	-1.669	-0.968
63.89	1.745	51.000	0.000	1.869	1.752	1.756	0.394	1.770	2.221	1.700	-1.770	1.968
64.58	1.833	51.000	0.000	1.863	1.845	1.817	0.378	1.777	2.239	1.716	-1.777	1.950
65.28	1.920	51.000	0.000	1.894	1.934	1.908	0.208	1.889	2.290	1.886	-1.889	1.899
65.97	2.007	51.000	0.000	2.018	2.025	2.016	0.019	2.018	2.417	2.076	-2.018	1.772
66.67	2.094	51.000	0.000	2.068	2.112	2.096	0.033	2.076	-1.203	2.061	-2.076	-0.891
67.36	2.182	51.000	0.000	2.158	2.189	2.201	-0.074	2.146	2.303	2.169	-2.146	1.886
68.06	2.269	51.000	0.000	2.245	2.265	2.285	-0.191	2.302	2.204	2.286	-2.302	1.985
68.75	2.356	51.000	0.000	2.330	2.356	2.360	-0.236	2.302	2.407	2.330	-2.302	1.782
69.44	2.443	51.000	0.000	2.467	2.461	2.450	-0.373	2.527	2.351	2.467	-2.527	1.837
70.14	2.531	51.000	0.000	2.528	2.527	2.541	-0.434	2.564	2.479	2.528	-2.564	1.710
70.83	2.618	51.000	0.000	2.658	2.634	2.621	-0.563	2.716	2.608	2.658	-2.716	1.581
71.53	2.705	51.000	0.000	2.663	2.707	2.714	-0.568	2.734	2.603	2.663	-2.734	1.586
72.22	2.793	51.000	0.000	2.771	2.796	2.777	-0.677	2.864	2.723	2.771	-2.864	1.466
72.92	2.880	51.000	0.000	2.889	2.897	2.890	-0.795	2.887	2.890	2.889	-2.887	1.299
73.61	2.967	51.000	0.000	2.916	3.007	2.960	-0.822	2.701	3.008	2.916	-2.701	1.181
74.31	3.054	51.000	0.000	3.059	0.091	3.063	-0.975	0.163	3.050	3.069	-0.163	1.139
75.00	3.142	51.000	0.000	3.124	3.049	-3.133	-1.055	0.297	3.098	-3.134	-0.297	1.091
75.69	-3.054	51.000	0.000	3.113	3.032	-3.051	-1.058	0.366	3.075	-3.131	-0.366	1.114
76.39	-2.967	51.000	0.000	-2.893	2.913	-2.967	-1.335	0.262	-2.932	-2.854	-0.262	0.838
77.08	-2.880	51.000	0.000	-2.882	2.920	-2.869	-1.298	2.858	-2.882	-2.890	-2.858	0.787
77.78	-2.793	51.000	0.000	-2.785	2.806	-2.786	-1.398	2.775	-2.785	-2.791	-2.775	0.691
78.47	-2.705	51.000	0.000	-2.693	2.700	-2.702	-1.513	2.716	-2.693	-2.675	-2.716	0.599
79.17	-2.618	51.000	0.000	-2.626	2.628	-2.616	-1.518	2.580	-2.626	-2.670	-2.580	0.531
79.86	-2.531	51.000	0.000	-2.550	2.545	-2.539	-1.612	2.529	-2.550	-2.576	-2.529	0.456
80.56	-2.443	51.000	0.000	-2.354	2.457	-2.456	-1.915	2.379	-2.354	-2.273	-2.379	0.259
81.25	-2.356	51.000	0.000	-2.342	2.367	-2.363	0.908	2.367	-2.318	1.186	-2.367	0.224
81.94	-2.269	51.000	0.000	-2.377	2.278	-2.255	-1.699	2.324	-2.377	-2.490	-2.324	0.282
82.64	-2.182	51.000	0.000	-2.220	2.187	-2.180	-1.954	2.218	-2.220	-2.234	-2.218	0.126
83.33	-2.094	51.000	0.000	-2.094	2.101	-2.080	-1.830	2.094	-2.133	-2.358	-2.094	0.039
84.03	-2.007	51.000	0.000	-2.040	2.011	-2.016	-1.978	2.037	-2.043	-2.211	-2.037	-0.051
84.72	-1.920	51.000	0.000	-1.962	1.929	-1.941	-1.857	1.951	-1.973	-2.332	-1.951	-0.121
85.42	-1.833	51.000	0.000	-1.897	1.840	-1.820	-1.929	1.864	-1.847	-2.260	-1.864	-0.248
86.11	-1.745	51.000	0.000	-1.711	1.745	-1.733	-1.625	1.711	-1.766	-2.563	-1.711	-0.328
86.81	-1.658	51.000	0.000	-1.669	1.670	-1.634	-1.906	1.669	-1.534	-2.283	-1.669	-0.560
87.50	-1.571	51.000	0.000	-1.649	1.580	-1.555	-1.660	1.649	-1.641	-2.529	-1.649	-0.454
88.19	-1.484	51.000	0.000	-1.365	1.491	-1.477	-1.308	1.365	-1.473	-2.881	-1.365	-0.622
88.89	-1.396	51.000	0.000	-1.360	1.410	-1.395	-1.371	1.360	-1.337	-2.818	-1.360	-0.757
89.58	-1.309	51.000	0.000	-1.215	1.314	-1.316	-1.302	1.275	-1.155	-2.886	-1.275	-0.940
90.28	-1.222	51.000	0.000	-1.280	1.237	-1.210	-1.191	1.280	-1.485	-2.998	-1.280	-0.609
90.97	-1.134	51.000	0.000	-1.049	1.131	-1.105	-1.033	1.064	-1.277	3.128	-1.064	-0.817
91.67	-1.047	51.000	0.000	-1.104	1.056	-1.049	-1.095	1.112	-1.230	-3.094	-1.112	-0.864
92.36	-0.960	51.000	0.000	-0.915	0.963	-0.953	-0.950	0.880	2.415	3.044	-0.880	1.774
93.06	-0.873	51.000	0.000	-0.885	0.883	-0.845	-0.885	0.994	-1.501	2.979	-0.994	-0.593
93.75	-0.785	51.000	0.000	-0.740	0.799	-0.780	-0.740	0.767	-1.411	2.834	-0.767	-0.683
94.44	-0.698	51.000	0.000	-0.731	0.709	-0.696	-0.731	0.717	-1.333	2.825	-0.717	-0.761
95.14	-0.611	51.000	0.000	-0.578	0.607	-0.604	-0.578	0.616	-1.562	2.672	-0.616	-0.533
95.83	-0.524	51.000	0.000	-0.523	0.534	-0.520	-0.523	0.403	-1.451	2.618	-0.403	-0.643
96.53	-0.436	51.000	0.000	-0.402	0.403	-0.435	-0.402	0.403	-1.693	2.496	-0.403	-0.402
97.22	-0.349	51.000	0.000	-0.319	0.305	-0.349	-0.319	0.335	-1.783	2.414	-0.335	-0.312
97.92	-0.262	51.000	0.000	-0.278	0.213	-0.250	-0.278	0.273	-1.815	2.372	-0.273	-0.280
98.61	-0.175	51.000	0.000	2.280	0.201	-0.183	-0.186	2.877	-1.838	2.280	-2.877	-0.256
99.31	-0.087	51.000	0.000	-0.080	3.028	-0.070	-0.080	0.225	-2.041	2.174	-0.225	-0.053
100.00	0.000	51.000	0.000	-0.045	0.155	0.002	-0.016	2.825	-2.020	2.110	-2.825	-0.075
