percent	ang_W	r	phase	choose_angle	delta_1_x_5	delta_2_x_1	delta_3_x_2	delta_4_x_3	delta_5_x_4	delta_5_x_1	delta_1_x_2	delta_2_x_3	delta_3_x_4	delta_4_x_5
0.00	0.000	51.000	0.000	0.057	-0.122	0.065	3.046	2.565	-1.306	1.378	-2.578	-3.046	-0.052	0.049
0.69	0.087	51.000	0.000	0.107	0.081	0.107	0.230	2.422	-1.397	1.175	-2.621	-0.230	0.091	0.140
1.39	0.175	51.000	0.000	0.240	0.240	0.144	0.258	2.405	-1.530	1.017	-2.657	-0.258	0.108	0.273
2.08	0.262	51.000	0.000	0.282	0.059	0.282	0.337	2.214	-1.410	1.198	-2.795	-0.337	0.299	0.154
2.78	0.349	51.000	0.000	0.373	-2.445	0.309	0.447	2.158	-1.647	-2.582	-2.823	-0.447	0.355	0.390
3.47	0.436	51.000	0.000	0.423	0.423	0.400	0.424	2.144	-1.701	0.834	-2.914	-0.424	0.369	0.444
4.17	0.524	51.000	0.000	0.501	-2.286	0.482	0.513	1.964	-1.745	-2.740	-2.995	-0.513	0.549	0.489
4.86	0.611	51.000	0.000	0.632	-2.155	0.626	0.579	1.876	-1.914	-2.872	-3.139	-0.579	0.637	0.658
5.56	0.698	51.000	0.000	0.750	0.370	0.718	0.750	1.717	-1.928	0.887	3.052	-0.750	0.797	0.671
6.25	0.785	51.000	0.000	0.767	0.489	0.835	0.701	1.912	-2.130	0.767	2.935	-0.701	0.601	0.873
6.94	0.873	51.000	0.000	0.913	-2.358	0.794	0.950	1.571	-2.140	-2.669	2.976	-0.950	0.943	0.883
7.64	0.960	51.000	0.000	0.937	-2.297	0.992	0.882	1.639	-2.286	-2.730	2.778	-0.882	0.874	1.029
8.33	1.047	51.000	0.000	1.096	0.108	1.096	1.049	1.410	-2.284	1.149	2.674	-1.049	1.103	1.028
9.03	1.134	51.000	0.000	1.130	0.199	1.126	1.134	-2.072	-2.395	1.058	2.644	-1.134	-1.698	1.138
9.72	1.222	51.000	0.000	1.228	0.006	1.233	1.222	-2.075	-2.450	1.250	2.537	-1.222	-1.695	1.193
10.42	1.309	51.000	0.000	1.332	0.036	1.373	1.306	-2.152	-2.615	1.220	2.397	-1.306	-1.618	1.359
11.11	1.396	51.000	0.000	1.378	-0.151	1.208	1.493	1.380	-2.633	1.408	2.562	-1.493	1.133	1.376
11.81	1.484	51.000	0.000	1.456	-0.161	1.462	1.456	1.447	-2.746	1.418	2.308	-1.456	1.067	1.489
12.50	1.571	51.000	0.000	1.558	-0.420	-1.091	1.584	1.498	-2.788	1.676	-1.423	-1.584	1.016	1.531
13.19	1.658	51.000	0.000	1.606	-0.436	1.545	1.722	1.535	-2.863	1.693	2.225	-1.722	0.979	1.606
13.89	1.745	51.000	0.000	1.746	-0.371	1.474	1.758	1.734	-3.056	1.627	2.296	-1.758	0.780	1.799
14.58	1.833	51.000	0.000	1.871	-0.523	1.501	1.857	1.887	3.141	1.780	2.269	-1.857	0.626	1.885
15.28	1.920	51.000	0.000	1.908	-0.682	-1.175	1.957	1.843	-3.135	1.938	-1.338	-1.957	0.671	1.878
15.97	2.007	51.000	0.000	2.017	-0.810	-0.922	1.941	2.062	3.054	2.066	-1.592	-1.941	0.451	1.973
16.67	2.094	51.000	0.000	2.103	-0.846	1.631	2.165	2.012	2.973	2.103	2.139	-2.165	0.502	2.053
17.36	2.182	51.000	0.000	2.125	-0.868	1.483	2.278	2.024	2.904	2.125	2.287	-2.278	0.489	2.122
18.06	2.269	51.000	0.000	2.265	-1.041	1.505	2.291	2.214	2.930	2.297	2.265	-2.291	0.299	2.097
18.75	2.356	51.000	0.000	2.470	-1.075	1.293	2.492	2.310	2.563	2.332	2.477	-2.492	0.203	2.463
19.44	2.443	51.000	0.000	2.364	-1.186	1.445	2.434	2.364	2.731	2.443	2.325	-2.434	0.149	2.295
20.14	2.531	51.000	0.000	2.491	-1.215	1.260	2.443	2.532	-0.812	2.471	2.510	-2.443	-0.019	-0.445
20.83	2.618	51.000	0.000	2.650	-1.402	1.120	2.644	2.620	2.825	2.658	2.650	-2.644	-0.107	2.201
21.53	2.705	51.000	0.000	2.677	-1.421	1.060	2.672	2.676	2.799	2.677	2.710	-2.672	-0.163	2.227
22.22	2.793	51.000	0.000	2.758	-1.586	1.055	2.758	2.800	2.741	2.843	2.715	-2.758	-0.287	2.286
22.92	2.880	51.000	0.000	2.840	-1.640	0.937	2.746	2.840	3.016	2.897	2.833	-2.746	-0.327	2.010
23.61	2.967	51.000	0.000	2.930	-1.673	0.776	2.870	3.017	2.890	2.930	2.994	-2.870	-0.504	2.137
24.31	3.054	51.000	0.000	3.095	-1.729	0.654	2.786	3.112	3.078	2.986	3.116	-2.786	-0.599	1.948
25.00	3.142	51.000	0.000	3.113	-1.871	0.685	2.805	3.099	-3.085	3.127	3.084	-2.805	-0.586	1.829
25.69	-3.054	51.000	0.000	-3.035	-2.059	0.533	0.170	-3.024	-3.049	-2.968	-3.046	-0.170	-0.746	1.793
26.39	-2.967	51.000	0.000	-2.965	-1.927	0.388	2.965	-2.970	-2.964	-3.100	-2.901	-2.965	-0.800	1.708
27.08	-2.880	51.000	0.000	-2.886	-1.946	0.351	2.850	-2.886	-2.962	-3.081	-2.864	-2.850	-0.883	1.705
27.78	-2.793	51.000	0.000	-2.776	0.324	0.406	2.623	-2.813	-2.738	0.932	-2.919	-2.623	-0.957	1.482
28.47	-2.705	51.000	0.000	-2.693	-2.377	0.177	2.869	-2.697	-2.750	-2.650	-2.690	-2.869	-1.073	1.494
29.17	-2.618	51.000	0.000	-2.673	-2.348	0.159	2.475	-2.683	-2.549	-2.678	-2.673	-2.475	-1.087	1.293
29.86	-2.531	51.000	0.000	-2.539	0.428	-0.015	2.662	-2.523	-2.554	0.829	-2.499	-2.662	-1.247	1.297
30.56	-2.443	51.000	0.000	-2.439	0.315	-0.067	2.431	-2.301	-2.454	0.941	-2.446	-2.431	-1.469	1.197
31.25	-2.356	51.000	0.000	-2.367	0.417	-0.113	2.368	-2.362	-2.366	0.840	-2.400	-2.368	-1.408	1.110
31.94	-2.269	51.000	0.000	-2.285	0.489	-0.163	2.264	-2.276	-2.295	0.767	-2.351	-2.264	-1.494	1.038
32.64	-2.182	51.000	0.000	-2.243	-2.257	-0.327	2.261	-2.243	-2.207	-2.769	-2.186	-2.261	-1.527	0.950
33.33	-2.094	51.000	0.000	-2.181	-2.181	-0.484	2.216	-2.354	-2.030	-2.846	-2.029	-2.216	-1.416	0.773
34.03	-2.007	51.000	0.000	-2.052	-2.069	-0.454	1.923	1.707	-2.045	-2.958	-2.059	-1.923	0.806	0.788
34.72	-1.920	51.000	0.000	-1.915	-1.899	-0.545	1.932	-2.277	-1.898	-3.128	-1.968	-1.932	-1.493	0.641
35.42	-1.833	51.000	0.000	-1.809	-1.689	-0.676	1.781	1.449	-1.906	2.946	-1.838	-1.781	1.064	0.650
36.11	-1.745	51.000	0.000	-1.771	-1.771	-1.002	1.795	1.399	-1.707	3.028	-1.511	-1.795	1.114	0.451
36.81	-1.658	51.000	0.000	-1.613	-1.606	-0.905	1.619	1.489	-1.699	2.862	-1.608	-1.619	1.024	0.442
37.50	-1.571	51.000	0.000	-1.605	-1.605	-0.850	1.534	-2.059	-1.573	2.862	-1.663	-1.534	-1.711	0.317
38.19	-1.484	51.000	0.000	-1.589	-1.515	-0.781	1.442	-2.044	-1.589	2.772	-1.732	-1.442	-1.725	0.333
38.89	-1.396	51.000	0.000	-1.386	-1.392	-0.918	1.350	-2.389	-1.394	2.648	-1.595	-1.350	-1.381	0.137
39.58	-1.309	51.000	0.000	-1.264	-1.278	1.616	1.302	-2.520	-1.226	2.535	2.154	-1.302	-1.250	-0.031
40.28	-1.222	51.000	0.000	1.885	-1.119	1.809	1.156	-2.388	-1.416	2.376	1.961	-1.156	-1.382	0.159
40.97	-1.134	51.000	0.000	-1.144	-1.138	1.576	1.194	-2.625	-1.143	2.394	2.194	-1.194	-1.145	-0.114
41.67	-1.047	51.000	0.000	-1.060	-0.990	-1.142	1.060	-2.727	-1.155	2.247	-1.371	-1.060	-1.043	-0.102
42.36	-0.960	51.000	0.000	-0.975	-0.956	-0.974	0.987	-2.795	-1.054	2.212	-1.539	-0.987	-0.975	-0.202
43.06	-0.873	51.000	0.000	-0.843	-0.896	-0.794	0.821	-2.870	-0.843	2.153	-1.719	-0.821	-0.900	-0.414
43.75	-0.785	51.000	0.000	-0.869	-0.727	-0.991	0.885	-3.030	-0.869	1.984	-1.523	-0.885	-0.740	-0.388
44.44	-0.698	51.000	0.000	-0.676	-0.717	-0.646	0.657	-3.074	2.686	1.973	-1.867	-0.657	-0.696	2.341
45.14	-0.611	51.000	0.000	-0.662	-0.648	-0.676	0.747	3.066	2.812	1.905	-1.837	-0.747	-0.553	2.215
45.83	-0.524	51.000	0.000	-0.526	-0.512	-0.545	0.526	3.080	-0.930	1.769	-1.969	-0.526	-0.567	-0.327
46.53	-0.436	51.000	0.000	-0.417	-0.417	-0.446	0.357	2.990	-0.905	1.673	-2.067	-0.357	-0.477	-0.352
47.22	-0.349	51.000	0.000	-0.429	-0.440	-0.237	0.417	2.798	-0.799	1.697	-2.276	-0.417	-0.285	-0.458
47.92	-0.262	51.000	0.000	-0.225	-0.225	-0.220	0.261	2.667	-0.843	1.481	-2.293	-0.261	-0.154	-0.414
48.61	-0.175	51.000	0.000	-0.282	-0.282	-0.194	0.408	2.670	-0.955	1.539	-2.319	-0.408	-0.157	-0.302
49.31	-0.087	51.000	0.000	-0.081	-0.139	-0.041	0.263	2.544	-1.136	1.396	-2.472	-0.263	-0.030	-0.120
50.00	0.000	51.000	0.000	0.036	0.050	0.006	2.701	2.599	-1.293	1.206	-2.519	-2.701	-0.086	0.036
50.69	0.087	51.000	0.000	0.146	0.169	0.122	2.908	2.448	-1.436	1.087	-2.636	-2.908	0.065	0.179
51.39	0.175	51.000	0.000	0.184	0.165	0.213	2.884	2.378	-1.459	1.092	-2.726	-2.884	0.136	0.202
52.08	0.262	51.000	0.000	0.321	0.321	0.279	0.460	2.146	-1.546	0.935	-2.792	-0.460	0.367	0.289
52.78	0.349	51.000	0.000	0.312	0.191	0.435	2.895	2.220	-1.587	1.066	-2.948	-2.895	0.294	0.330
53.47	0.436	51.000	0.000	0.446	-2.363	0.429	0.464	2.092	-1.744	-2.663	-2.942	-0.464	0.421	0.487
54.17	0.524	51.000	0.000	0.515	0.479	0.544	0.478	2.023	-1.796	0.778	-3.057	-0.478	0.490	0.540
54.86	0.611	51.000	0.000	0.597	-2.264	0.521	0.697	1.971	-1.909	-2.763	-3.034	-0.697	0.542	0.653
55.56	0.698	51.000	0.000	0.755	0.350	0.755	0.691	1.757	-1.936	0.907	3.015	-0.691	0.756	0.679
56.25	0.785	51.000	0.000	0.802	0.449	0.823	0.647	1.711	-1.972	0.808	2.947	-0.647	0.802	0.715
56.94	0.873	51.000	0.000	0.892	0.305	0.997	0.715	1.764	-2.149	0.951	2.773	-0.715	0.749	0.892
57.64	0.960	51.000	0.000	0.928	0.152	1.044	0.881	1.624	-2.184	1.105	2.726	-0.881	0.889	0.928
58.33	1.047	51.000	0.000	1.085	0.052	1.079	1.085	1.408	-2.275	1.204	2.691	-1.085	1.105	1.018
59.03	1.134	51.000	0.000	1.025	0.417	1.111	1.025	1.595	-2.431	0.839	2.659	-1.025	0.919	1.175
59.72	1.222	51.000	0.000	1.190	0.122	1.133	1.279	-2.080	-2.503	1.134	2.637	-1.279	-1.690	1.246
60.42	1.309	51.000	0.000	1.283	-0.018	1.295	1.291	-2.156	-2.521	1.275	2.475	-1.291	-1.614	1.265
61.11	1.396	51.000	0.000	1.415	-0.110	1.436	1.397	1.433	-2.703	1.367	2.334	-1.397	1.080	1.447
61.81	1.484	51.000	0.000	1.513	-0.319	1.502	1.523	-2.152	-2.642	1.575	2.268	-1.523	-1.618	1.385
62.50	1.571	51.000	0.000	1.528	-0.374	-1.062	1.528	-1.999	-2.732	1.631	-1.452	-1.528	-1.771	1.475
63.19	1.658	51.000	0.000	1.635	-0.400	1.518	1.635	1.728	-2.872	1.657	2.251	-1.635	0.785	1.615
63.89	1.745	51.000	0.000	1.762	-0.502	-1.077	1.766	1.754	-3.060	1.758	-1.436	-1.766	0.759	1.803
64.58	1.833	51.000	0.000	1.804	-0.558	-1.195	1.888	1.614	-3.050	1.815	-1.318	-1.888	0.899	1.793
65.28	1.920	51.000	0.000	1.896	-0.630	-1.118	1.915	1.841	3.121	1.887	-1.395	-1.915	0.672	1.905
65.97	2.007	51.000	0.000	2.024	-0.725	1.545	2.033	2.021	3.003	1.982	2.225	-2.033	0.492	2.024
66.67	2.094	51.000	0.000	2.066	-0.800	1.475	2.126	2.066	2.975	2.057	2.295	-2.126	0.448	2.052
67.36	2.182	51.000	0.000	2.150	-0.893	1.633	2.130	2.178	2.852	2.150	2.137	-2.130	0.336	2.174
68.06	2.269	51.000	0.000	2.321	-0.986	1.355	2.371	2.271	-0.765	2.242	2.415	-2.371	0.242	-0.491
68.75	2.356	51.000	0.000	2.296	-1.038	1.401	2.271	2.352	2.731	2.295	2.369	-2.271	0.161	2.296
69.44	2.443	51.000	0.000	2.406	-1.138	1.365	2.407	2.396	2.575	2.394	2.405	-2.407	0.117	2.451
70.14	2.531	51.000	0.000	2.521	-1.360	1.278	2.464	2.550	2.914	2.617	2.492	-2.464	-0.037	2.112
70.83	2.618	51.000	0.000	2.590	-1.290	1.159	2.666	2.569	-0.914	2.546	2.611	-2.666	-0.056	-0.342
71.53	2.705	51.000	0.000	2.720	-1.430	1.037	2.668	2.720	2.731	2.686	2.733	-2.668	-0.207	2.295
72.22	2.793	51.000	0.000	2.780	-1.463	0.929	0.137	2.681	2.852	2.719	2.841	-0.137	-0.168	2.174
72.92	2.880	51.000	0.000	2.911	-1.547	0.838	0.202	2.911	-0.897	2.803	2.932	-0.202	-0.397	-0.360
73.61	2.967	51.000	0.000	2.878	-1.548	0.819	2.785	2.974	2.581	2.805	2.951	-2.785	-0.461	2.445
74.31	3.054	51.000	0.000	3.086	-1.836	0.683	0.237	3.084	3.043	3.093	3.087	-0.237	-0.571	1.983
75.00	3.142	51.000	0.000	3.135	-1.847	0.603	0.173	3.095	-3.090	3.104	-3.116	-0.173	-0.581	1.833
75.69	-3.054	51.000	0.000	-3.093	-1.833	0.514	0.086	-3.093	-3.093	3.090	-3.028	-0.086	-0.677	1.837
76.39	-2.967	51.000	0.000	-2.909	-2.180	0.376	0.352	-2.928	-2.949	-2.847	-2.889	-0.352	-0.842	1.692
77.08	-2.880	51.000	0.000	-2.868	-2.053	0.348	2.839	-2.868	-2.903	-2.973	-2.862	-2.839	-0.902	1.646
77.78	-2.793	51.000	0.000	-2.750	-2.379	0.343	2.750	-2.744	-2.862	-2.648	-2.857	-2.750	-1.026	1.606
78.47	-2.705	51.000	0.000	-2.668	0.454	0.113	2.890	-2.668	-2.679	0.802	-2.626	-2.890	-1.102	1.422
79.17	-2.618	51.000	0.000	-2.663	0.294	0.126	2.715	-2.687	-2.571	0.963	-2.639	-2.715	-1.083	1.314
79.86	-2.531	51.000	0.000	-2.592	-2.267	-0.065	2.675	-2.592	-2.517	-2.759	-2.448	-2.675	-1.178	1.261
80.56	-2.443	51.000	0.000	-2.422	0.419	-0.089	2.452	-2.419	-2.419	0.838	-2.424	-2.452	-1.351	1.163
81.25	-2.356	51.000	0.000	-2.377	0.526	-0.183	2.438	-2.408	-2.346	0.731	-2.330	-2.438	-1.362	1.089
81.94	-2.269	51.000	0.000	-2.294	0.501	-0.228	2.302	-2.367	-2.229	0.755	-2.286	-2.302	-1.402	0.972
82.64	-2.182	51.000	0.000	-2.113	-2.496	-0.269	2.097	-2.094	-2.129	-2.530	-2.244	-2.097	-1.676	0.872
83.33	-2.094	51.000	0.000	-2.022	-2.104	-0.516	2.099	-1.912	-2.046	-2.923	-1.997	-2.099	-1.858	0.790
84.03	-2.007	51.000	0.000	0.833	-1.942	-0.555	1.976	1.659	-2.068	-3.084	-1.959	-1.976	0.854	0.811
84.72	-1.920	51.000	0.000	-1.923	-1.954	-0.532	1.923	-2.105	-1.920	-3.073	-1.981	-1.923	-1.665	0.664
85.42	-1.833	51.000	0.000	-1.782	-1.791	-0.741	1.763	1.708	-1.864	3.047	-1.773	-1.763	0.805	0.607
86.11	-1.745	51.000	0.000	-1.685	-1.640	-1.054	1.811	-2.085	-1.783	2.897	-1.460	-1.811	-1.685	0.527
86.81	-1.658	51.000	0.000	-1.615	-1.584	-0.953	1.646	1.410	-1.714	2.841	-1.560	-1.646	1.104	0.457
87.50	-1.571	51.000	0.000	-1.532	-1.532	-0.994	1.594	-2.374	-1.535	2.789	-1.520	-1.594	-1.396	0.278
88.19	-1.484	51.000	0.000	-1.414	-1.396	1.819	1.508	-2.513	-1.433	2.652	1.951	-1.508	-1.257	0.177
88.89	-1.396	51.000	0.000	-1.386	-1.386	-1.035	1.352	-2.370	-1.370	2.643	-1.478	-1.352	-1.400	0.113
89.58	-1.309	51.000	0.000	-1.308	-1.357	1.505	1.374	-2.511	-1.166	2.613	2.265	-1.374	-1.259	-0.091
90.28	-1.222	51.000	0.000	-1.243	-1.184	1.762	1.301	-2.601	-1.337	2.441	2.008	-1.301	-1.169	0.081
90.97	-1.134	51.000	0.000	-1.075	-1.144	-0.985	1.099	-2.694	-1.011	2.401	-1.529	-1.099	-1.075	-0.246
91.67	-1.047	51.000	0.000	-1.001	-1.041	1.574	1.121	-2.809	-0.834	2.298	2.196	-1.121	-0.961	-0.422
92.36	-0.960	51.000	0.000	-0.977	-0.977	-0.846	0.960	-2.773	-1.092	2.233	-1.667	-0.960	-0.997	-0.165
93.06	-0.873	51.000	0.000	-0.834	-0.942	-0.698	0.834	-2.894	-0.796	2.198	-1.816	-0.834	-0.876	-0.461
93.75	-0.785	51.000	0.000	-0.739	-0.777	-0.702	0.731	-3.004	-0.739	2.034	-1.811	-0.731	-0.766	-0.517
94.44	-0.698	51.000	0.000	-0.680	-0.672	-0.688	0.635	-2.935	-1.117	1.929	-1.826	-0.635	-0.835	-0.139
95.14	-0.611	51.000	0.000	-0.659	-0.648	-0.679	0.670	3.098	2.870	1.904	-1.835	-0.670	-0.585	2.156
95.83	-0.524	51.000	0.000	-0.450	-0.601	-0.389	0.345	3.025	2.852	1.858	-2.124	-0.345	-0.512	2.174
96.53	-0.436	51.000	0.000	-0.405	-0.405	-0.438	0.318	3.011	-0.981	1.662	-2.075	-0.318	-0.498	-0.276
97.22	-0.349	51.000	0.000	-0.290	-0.290	-0.309	0.076	2.911	-1.101	1.547	-2.204	-0.076	-0.398	-0.156
97.92	-0.262	51.000	0.000	-0.307	-0.272	-0.307	0.333	2.845	-1.106	1.529	-2.206	-0.333	-0.332	-0.151
98.61	-0.175	51.000	0.000	-0.171	-0.117	-0.159	2.783	2.697	-1.046	1.374	-2.355	-2.783	-0.184	-0.211
99.31	-0.087	51.000	0.000	-0.103	-0.023	-0.159	0.203	2.617	-1.184	1.280	-2.354	-0.203	-0.103	-0.072
100.00	0.000	51.000	0.000	0.072	0.072	-0.046	0.358	2.504	-1.339	1.185	-2.467	-0.358	0.009	0.082
