percent	ang_W	r	phase	choose_angle	delta_1_x_7	delta_2_x_1	delta_3_x_2	delta_4_x_3	delta_5_x_4	delta_6_x_5	delta_7_x_6	delta_7_x_1	delta_1_x_2	delta_2_x_3	delta_3_x_4	delta_4_x_5	delta_5_x_6	delta_6_x_7
0.00	0.000	51.000	0.000	0.036	0.031	-0.088	0.109	2.868	1.785	-2.733	-0.694	0.867	2.781	-1.905	-2.868	0.010	0.040	-0.203
0.69	0.087	51.000	0.000	0.063	-0.027	0.109	0.045	0.308	1.640	-2.755	-0.900	0.924	2.584	-1.840	-0.308	0.155	0.063	0.002
1.39	0.175	51.000	0.000	0.211	0.372	0.212	0.165	2.959	1.573	-2.902	-1.005	0.526	2.481	-1.960	-2.959	0.222	0.210	0.108
2.08	0.262	51.000	0.000	0.218	0.064	0.295	0.190	0.402	1.594	-2.963	-1.132	0.834	2.398	-1.985	-0.402	0.202	0.270	0.235
2.78	0.349	51.000	0.000	0.346	-2.388	0.278	0.341	0.363	1.443	-3.009	-1.272	-2.998	2.415	-2.136	-0.363	0.352	0.316	0.374
3.47	0.436	51.000	0.000	0.471	-2.533	0.516	0.367	0.520	1.177	-3.080	-1.369	-2.852	2.177	-2.163	-0.520	0.618	0.388	0.471
4.17	0.524	51.000	0.000	0.500	-2.257	0.494	0.579	0.429	-2.327	3.091	-1.464	-3.129	2.199	-2.374	-0.429	-2.161	0.500	0.567
4.86	0.611	51.000	0.000	0.597	0.101	0.666	0.597	0.633	-2.492	3.029	-1.465	0.796	2.027	-2.392	-0.633	-1.996	0.562	0.568
5.56	0.698	51.000	0.000	0.717	-2.491	0.602	0.722	0.679	1.343	2.821	-1.614	-2.894	2.090	-2.517	-0.679	0.452	0.769	0.717
6.25	0.785	51.000	0.000	0.806	0.085	0.861	0.760	0.806	1.093	2.886	-1.788	0.813	1.832	-2.555	-0.806	0.702	0.704	0.891
6.94	0.873	51.000	0.000	0.904	-0.154	1.097	0.855	0.906	-2.452	2.688	-1.724	1.051	1.595	-2.650	-0.906	-2.036	0.902	0.826
7.64	0.960	51.000	0.000	0.945	-0.035	0.913	0.997	0.899	1.067	2.619	-1.842	0.932	1.780	-2.792	-0.899	0.729	0.971	0.945
8.33	1.047	51.000	0.000	1.053	-0.156	-1.663	1.058	1.017	-2.439	2.577	-1.971	1.053	-1.928	-2.853	-1.017	-2.049	1.013	1.074
9.03	1.134	51.000	0.000	1.171	-0.368	1.069	1.171	1.128	1.343	2.357	-1.966	1.266	1.624	-2.966	-1.128	0.453	1.233	1.069
9.72	1.222	51.000	0.000	1.204	-0.294	-1.514	1.232	1.217	1.083	2.449	-2.204	1.192	-2.077	-3.028	-1.217	0.712	1.142	1.306
10.42	1.309	51.000	0.000	1.347	-0.549	-1.435	1.329	1.285	1.374	2.226	-2.157	1.447	-2.156	-3.124	-1.285	0.421	1.364	1.260
11.11	1.396	51.000	0.000	1.392	-0.407	0.914	1.430	1.357	1.448	2.275	-2.323	1.304	1.778	3.058	-1.357	0.347	1.315	1.426
11.81	1.484	51.000	0.000	1.432	-0.553	-1.543	1.402	1.495	1.414	2.330	-2.465	1.450	-2.048	3.086	-1.495	0.382	1.260	1.567
12.50	1.571	51.000	0.000	1.585	-0.638	0.901	1.590	1.581	1.590	2.159	-2.506	1.536	1.792	2.898	-1.581	0.205	1.431	1.608
13.19	1.658	51.000	0.000	1.613	-0.803	0.913	1.770	1.605	1.638	2.158	-2.510	1.701	1.779	2.718	-1.605	0.157	1.432	1.613
13.89	1.745	51.000	0.000	1.762	-0.881	0.950	1.800	1.706	1.830	-1.544	-2.644	1.778	1.742	2.688	-1.706	-0.035	-1.149	1.746
14.58	1.833	51.000	0.000	1.794	-0.905	0.683	-0.631	1.754	1.786	2.222	-2.767	1.803	2.010	-1.164	-1.754	0.010	1.368	1.869
15.28	1.920	51.000	0.000	1.930	-1.058	0.763	2.020	1.852	1.902	1.979	-2.702	1.956	1.930	2.468	-1.852	-0.107	1.612	1.805
15.97	2.007	51.000	0.000	1.994	-1.097	0.780	1.733	2.021	1.979	2.176	-2.911	1.994	1.913	2.755	-2.021	-0.183	1.414	2.013
16.67	2.094	51.000	0.000	2.094	-1.249	0.721	1.853	2.092	2.096	2.169	-2.967	2.146	1.972	2.635	-2.092	-0.301	1.422	2.069
17.36	2.182	51.000	0.000	2.171	-1.225	0.522	1.915	2.393	2.020	2.256	3.081	2.122	2.171	2.573	-2.393	-0.225	1.334	2.305
18.06	2.269	51.000	0.000	2.251	-1.306	0.339	-0.472	2.243	2.253	2.251	3.009	2.204	2.354	-1.323	-2.243	-0.458	1.340	2.377
18.75	2.356	51.000	0.000	2.379	-1.476	0.309	-0.580	2.289	2.401	2.354	2.993	2.373	2.384	-1.215	-2.289	-0.606	1.236	2.393
19.44	2.443	51.000	0.000	2.406	-1.631	0.364	1.906	2.513	2.427	2.384	3.020	2.529	2.329	2.582	-2.513	-0.632	1.206	2.365
20.14	2.531	51.000	0.000	2.529	-1.723	0.167	2.217	2.532	2.506	2.592	2.920	2.621	2.526	2.271	-2.532	-0.711	0.999	2.465
20.83	2.618	51.000	0.000	2.602	-1.629	0.091	1.699	2.721	2.576	2.647	-0.738	2.526	2.602	2.789	-2.721	-0.781	0.944	-0.159
21.53	2.705	51.000	0.000	2.714	-1.842	-0.003	1.756	2.826	2.679	2.656	3.009	2.740	2.696	2.732	-2.826	-0.883	0.934	2.377
22.22	2.793	51.000	0.000	2.835	-1.854	-0.177	1.725	2.919	2.835	2.713	2.924	2.751	2.870	2.763	-2.919	-1.040	0.877	2.461
22.92	2.880	51.000	0.000	2.923	-2.044	-0.139	1.499	2.769	2.940	2.923	2.890	2.942	2.831	2.989	-2.769	-1.145	0.667	2.496
23.61	2.967	51.000	0.000	3.010	-2.144	-0.236	1.460	3.096	2.947	3.010	2.997	3.041	2.929	3.028	-3.096	-1.152	0.580	2.389
24.31	3.054	51.000	0.000	3.036	-2.122	-0.383	1.435	0.325	2.934	3.121	3.010	3.020	3.076	3.053	-0.325	-1.139	0.470	2.376
25.00	3.142	51.000	0.000	3.139	-2.299	-0.376	1.292	0.190	-3.119	3.111	3.114	-3.087	3.069	-3.087	-0.190	-1.369	0.479	2.271
25.69	-3.054	51.000	0.000	-3.055	0.185	-0.506	1.299	2.900	-3.055	-3.008	-3.023	0.713	-3.084	-3.095	-2.900	-1.433	0.315	2.125
26.39	-2.967	51.000	0.000	-2.967	0.249	-0.667	1.218	0.166	-2.983	-2.967	-2.903	0.649	-2.923	-3.013	-0.166	-1.505	0.274	2.005
27.08	-2.880	51.000	0.000	-2.885	-2.330	-0.743	1.089	2.850	-2.790	-2.920	-2.921	-3.056	-2.848	-2.885	-2.850	-1.698	0.227	2.023
27.78	-2.793	51.000	0.000	-2.792	-2.344	-0.814	1.012	2.724	-2.841	-2.741	-2.873	-3.041	-2.777	-2.808	-2.724	-1.647	0.048	1.976
28.47	-2.705	51.000	0.000	-2.719	-2.429	-0.977	0.919	2.849	-2.734	-2.703	-2.723	-2.956	-2.613	-2.714	-2.849	-1.754	0.010	1.825
29.17	-2.618	51.000	0.000	-2.573	0.165	-0.916	0.800	2.522	-2.551	-2.539	-2.644	0.733	-2.674	-2.595	-2.522	-1.937	-0.153	1.747
29.86	-2.531	51.000	0.000	-2.554	-2.574	-1.032	0.682	2.553	0.995	-2.526	-2.555	-2.812	-2.558	-2.477	-2.553	0.801	-0.167	1.658
30.56	-2.443	51.000	0.000	-2.524	-2.607	-0.985	0.659	2.444	-2.616	-2.524	-2.410	-2.778	-2.605	-2.454	-2.444	-1.872	-0.169	1.513
31.25	-2.356	51.000	0.000	-2.365	-2.358	-1.446	0.644	2.365	1.159	-2.290	-2.454	-3.028	-2.145	-2.439	-2.365	0.636	-0.403	1.556
31.94	-2.269	51.000	0.000	-2.277	-2.320	-1.324	0.508	2.178	1.237	-2.288	-2.251	-3.065	-2.266	-2.303	-2.178	0.558	-0.404	1.353
32.64	-2.182	51.000	0.000	-2.174	-2.101	-1.299	0.313	2.235	-2.411	-2.174	-2.240	2.999	-2.292	-2.109	-2.235	-2.077	-0.519	1.342
33.33	-2.094	51.000	0.000	-2.070	-2.057	-1.627	0.347	2.065	-2.480	-2.075	-2.102	2.954	-1.963	-2.143	-2.065	-2.008	-0.618	1.204
34.03	-2.007	51.000	0.000	-1.998	-1.964	-1.661	0.203	1.997	-2.464	-2.001	-2.012	2.861	-1.930	-1.998	-1.997	-2.024	-0.692	1.115
34.72	-1.920	51.000	0.000	-1.905	-1.952	-1.442	0.081	1.905	-2.602	-1.850	-1.926	2.849	-2.149	-1.877	-1.905	-1.886	-0.843	1.029
35.42	-1.833	51.000	0.000	-1.841	-1.828	1.132	0.059	1.881	-2.768	-1.864	-1.811	2.726	1.561	-1.854	-1.881	-1.720	-0.829	0.913
36.11	-1.745	51.000	0.000	-1.707	-1.712	1.084	-0.001	1.693	-2.791	-1.733	-1.702	2.609	1.609	-1.794	-1.693	-1.697	-0.959	0.804
36.81	-1.658	51.000	0.000	-1.645	-1.689	-1.533	-0.017	1.626	-2.862	-1.745	-1.664	2.587	-2.058	-1.778	-1.626	-1.626	-0.948	0.767
37.50	-1.571	51.000	0.000	-1.622	-1.622	-1.572	-0.136	1.505	-2.832	-1.680	-1.533	2.520	-2.019	-1.659	-1.505	-1.656	-1.013	0.636
38.19	-1.484	51.000	0.000	-1.442	-1.411	-1.613	-0.358	1.497	-3.074	-1.525	-1.448	2.308	-1.978	-1.437	-1.497	-1.414	-1.168	0.550
38.89	-1.396	51.000	0.000	-1.385	-1.424	-1.367	-0.250	1.387	-3.118	-1.659	-1.384	2.322	-2.223	-1.545	-1.387	-1.370	-1.033	0.486
39.58	-1.309	51.000	0.000	-1.348	-1.303	-1.480	-0.378	1.295	-3.107	-1.578	-1.315	2.201	-2.111	-1.417	-1.295	-1.381	-1.115	0.417
40.28	-1.222	51.000	0.000	-1.224	-1.194	-1.281	-0.481	1.216	3.026	-1.718	-1.182	2.092	-2.309	-1.315	-1.216	-1.231	-0.974	0.284
40.97	-1.134	51.000	0.000	-1.153	-1.140	-1.159	-0.552	1.092	2.948	-1.524	-1.128	2.037	-2.432	-1.243	-1.092	-1.153	-1.169	0.231
41.67	-1.047	51.000	0.000	-1.027	-1.128	-0.951	2.080	1.027	2.824	-1.401	-0.996	2.026	-2.639	2.408	-1.027	-1.029	-1.292	0.098
42.36	-0.960	51.000	0.000	-0.984	-1.000	-0.978	-0.558	0.901	2.785	-1.662	-0.977	1.898	-2.613	-1.238	-0.901	-0.990	-1.031	0.079
43.06	-0.873	51.000	0.000	-0.856	-0.879	-0.818	2.098	0.834	2.695	-1.863	-0.882	1.777	-2.772	2.390	-0.834	-0.900	-0.830	-0.016
43.75	-0.785	51.000	0.000	-0.763	-0.771	-0.755	-0.763	0.700	2.603	-1.931	-0.769	1.668	-2.836	-1.032	-0.700	-0.808	-0.762	-0.129
44.44	-0.698	51.000	0.000	-0.719	-0.669	-0.716	2.088	0.761	2.465	-1.970	-0.726	1.566	-2.875	2.400	-0.761	-0.670	-0.723	-0.171
45.14	-0.611	51.000	0.000	-0.629	-0.639	-0.546	-0.489	0.415	2.424	-2.050	-0.712	1.536	-3.044	-1.307	-0.415	-0.629	-0.643	-0.186
45.83	-0.524	51.000	0.000	-0.586	-0.586	-0.482	-0.689	0.681	2.338	-2.206	-0.664	1.484	-3.109	-1.106	-0.681	-0.542	-0.487	-0.234
46.53	-0.436	51.000	0.000	-0.425	-0.413	-0.425	-0.506	0.529	2.196	-2.231	-0.688	1.311	3.117	-1.289	-0.529	-0.400	-0.462	-0.210
47.22	-0.349	51.000	0.000	-0.360	-0.410	-0.353	-0.231	0.091	2.161	-2.306	-0.621	1.308	3.046	-1.564	-0.091	-0.366	-0.386	-0.277
47.92	-0.262	51.000	0.000	-0.223	-0.225	-0.216	-0.374	0.465	2.053	-2.507	-0.677	1.123	2.909	-1.421	-0.465	-0.258	-0.186	-0.221
48.61	-0.175	51.000	0.000	-0.143	-0.071	-0.143	-0.157	2.887	2.004	-2.549	-0.879	0.969	2.835	-1.638	-2.887	-0.209	-0.144	-0.018
49.31	-0.087	51.000	0.000	-0.089	-0.033	-0.103	-0.075	2.806	1.976	-2.669	-0.747	0.931	2.796	-1.720	-2.806	-0.181	-0.024	-0.151
50.00	0.000	51.000	0.000	0.031	-0.007	0.073	-0.071	0.305	1.771	-2.730	-0.907	0.905	2.620	-1.724	-0.305	0.024	0.037	0.010
50.69	0.087	51.000	0.000	0.147	-0.156	0.130	0.058	0.165	1.830	-2.877	-0.767	1.054	2.563	-1.853	-0.165	-0.035	0.184	-0.130
51.39	0.175	51.000	0.000	0.183	0.109	0.224	0.173	0.224	1.613	-2.838	-1.165	0.788	2.469	-1.968	-0.224	0.183	0.145	0.267
52.08	0.262	51.000	0.000	0.277	-2.437	0.283	0.264	0.185	1.499	-2.964	-1.196	-2.949	2.410	-2.059	-0.185	0.296	0.271	0.298
52.78	0.349	51.000	0.000	0.348	0.022	0.406	0.392	0.202	1.455	-3.005	-1.252	0.875	2.287	-2.187	-0.202	0.340	0.313	0.355
53.47	0.436	51.000	0.000	0.436	-2.397	0.436	0.477	0.428	1.151	-3.079	-1.404	-2.988	2.256	-2.272	-0.428	0.644	0.386	0.507
54.17	0.524	51.000	0.000	0.552	0.205	0.467	0.552	0.564	1.236	3.079	-1.395	0.693	2.226	-2.347	-0.564	0.559	0.512	0.498
54.86	0.611	51.000	0.000	0.629	-0.040	0.630	0.635	0.627	1.248	2.932	-1.413	0.937	2.063	-2.430	-0.627	0.547	0.658	0.515
55.56	0.698	51.000	0.000	0.673	0.092	0.672	0.718	0.562	1.318	2.914	-1.571	0.805	2.021	-2.513	-0.562	0.478	0.676	0.674
56.25	0.785	51.000	0.000	0.757	-2.605	0.720	0.757	0.743	1.236	2.812	-1.707	-2.780	1.973	-2.553	-0.743	0.559	0.779	0.809
56.94	0.873	51.000	0.000	0.868	0.054	0.947	0.839	0.868	-2.312	2.722	-1.778	0.844	1.746	-2.635	-0.868	-2.176	0.868	0.880
57.64	0.960	51.000	0.000	0.941	-0.282	1.116	0.998	0.941	-2.270	2.665	-1.821	1.180	1.577	-2.793	-0.941	-2.218	0.926	0.923
58.33	1.047	51.000	0.000	1.069	-0.171	1.069	1.085	0.999	1.106	2.605	-1.987	1.069	1.624	-2.880	-0.999	0.689	0.985	1.089
59.03	1.134	51.000	0.000	1.125	-0.169	0.962	1.198	1.125	0.979	2.352	-1.986	1.066	1.730	-2.993	-1.125	0.816	1.238	1.089
59.72	1.222	51.000	0.000	1.239	-0.438	-1.473	1.247	1.161	1.341	2.360	-2.100	1.335	-2.117	-3.043	-1.161	0.454	1.230	1.203
60.42	1.309	51.000	0.000	1.340	-0.439	1.096	1.450	1.320	-2.479	2.430	-2.242	1.336	1.597	3.038	-1.320	-2.009	1.160	1.345
61.11	1.396	51.000	0.000	1.369	-0.438	1.087	1.433	1.403	1.315	2.266	-2.339	1.335	1.606	3.055	-1.403	0.481	1.325	1.442
61.81	1.484	51.000	0.000	1.480	-0.522	-1.666	1.441	1.475	1.488	2.105	-2.419	1.419	-1.924	3.047	-1.475	0.307	1.485	1.521
62.50	1.571	51.000	0.000	1.561	-0.744	1.108	1.561	1.592	1.497	2.155	-2.406	1.641	1.585	2.927	-1.592	0.298	1.435	1.508
63.19	1.658	51.000	0.000	1.628	-0.770	1.147	1.628	1.714	1.557	2.076	-2.581	1.668	1.545	2.860	-1.714	0.238	1.515	1.683
63.89	1.745	51.000	0.000	1.744	-0.766	0.949	1.556	1.754	1.744	2.184	-2.711	1.663	1.744	2.932	-1.754	0.051	1.406	1.814
64.58	1.833	51.000	0.000	1.815	-0.918	0.844	-0.717	1.778	1.813	2.086	-2.844	1.815	1.848	-1.078	-1.778	-0.018	1.504	1.947
65.28	1.920	51.000	0.000	1.929	-1.069	0.821	-0.734	1.899	1.901	2.020	-2.855	1.967	1.871	-1.061	-1.899	-0.106	1.570	1.957
65.97	2.007	51.000	0.000	1.941	-1.163	0.816	1.832	2.071	1.997	-1.732	-2.782	2.060	1.876	2.656	-2.071	-0.202	-0.961	1.884
66.67	2.094	51.000	0.000	2.085	-1.172	0.603	2.085	2.078	2.050	2.311	-3.101	2.070	2.090	2.403	-2.078	-0.254	1.279	2.204
67.36	2.182	51.000	0.000	2.195	-1.307	0.562	2.098	2.141	2.195	2.283	-3.137	2.205	2.131	2.390	-2.141	-0.400	1.308	2.240
68.06	2.269	51.000	0.000	2.290	-1.359	0.442	2.046	2.351	2.271	2.309	2.722	2.257	2.251	2.442	-2.351	-0.475	1.281	2.663
68.75	2.356	51.000	0.000	2.393	-1.555	0.302	2.026	2.413	2.371	2.393	-3.099	2.453	2.391	2.462	-2.413	-0.576	1.197	2.201
69.44	2.443	51.000	0.000	2.412	-1.539	0.220	1.928	2.581	2.412	2.359	3.094	2.437	2.473	2.560	-2.581	-0.617	1.231	2.291
70.14	2.531	51.000	0.000	2.486	-1.581	0.089	-0.790	2.458	2.547	2.494	2.983	2.479	2.604	-1.005	-2.458	-0.752	1.097	2.402
70.83	2.618	51.000	0.000	2.622	-1.725	0.137	1.775	2.621	2.649	2.592	-0.679	2.623	2.556	2.713	-2.621	-0.854	0.998	-0.219
71.53	2.705	51.000	0.000	2.702	-1.805	-0.103	2.007	2.732	2.693	2.650	3.023	2.702	2.796	2.481	-2.732	-0.898	0.940	2.362
72.22	2.793	51.000	0.000	2.808	-1.894	-0.032	1.607	2.910	2.782	2.825	-0.810	2.791	2.725	2.881	-2.910	-0.987	0.765	-0.088
72.92	2.880	51.000	0.000	2.877	-2.008	-0.233	1.702	0.048	2.847	2.848	3.012	2.906	2.925	2.786	-0.048	-1.052	0.742	2.374
73.61	2.967	51.000	0.000	2.958	-2.075	-0.219	1.524	2.663	3.042	2.952	2.940	2.973	2.911	2.964	-2.663	-1.246	0.638	2.446
74.31	3.054	51.000	0.000	2.973	-2.075	-0.411	1.525	2.786	3.076	3.069	2.951	2.973	3.104	2.963	-2.786	-1.281	0.521	2.435
75.00	3.142	51.000	0.000	3.113	-2.450	-0.420	1.388	0.192	3.139	-3.123	3.080	-2.936	3.113	3.100	-0.192	-1.344	0.431	2.306
75.69	-3.054	51.000	0.000	-3.080	-2.296	-0.514	1.289	2.732	-2.984	-3.044	-3.135	-3.089	-3.076	-3.084	-2.732	-1.504	0.352	2.237
76.39	-2.967	51.000	0.000	-2.909	-2.533	-0.644	1.114	0.213	-2.909	-2.995	-2.888	-2.852	-2.946	-2.909	-0.213	-1.579	0.302	1.991
77.08	-2.880	51.000	0.000	-2.897	-2.168	-0.776	1.118	2.733	-2.809	-2.897	-2.986	3.066	-2.814	-2.913	-2.733	-1.679	0.204	2.088
77.78	-2.793	51.000	0.000	-2.786	-2.418	-0.783	0.984	2.678	-2.646	-2.793	-2.871	-2.967	-2.808	-2.779	-2.678	-1.842	0.100	1.973
78.47	-2.705	51.000	0.000	-2.729	-2.399	-0.829	0.910	2.652	-2.595	-2.752	-2.788	-2.986	-2.761	-2.705	-2.652	-1.893	0.059	1.891
79.17	-2.618	51.000	0.000	-2.569	-2.396	-0.991	0.828	2.500	-2.490	-2.569	-2.684	-2.990	-2.599	-2.624	-2.500	-1.998	-0.123	1.786
79.86	-2.531	51.000	0.000	-2.514	0.183	-1.067	0.678	2.664	-2.584	-2.506	-2.490	0.715	-2.523	-2.473	-2.664	-1.904	-0.187	1.593
80.56	-2.443	51.000	0.000	-2.508	-2.268	-1.352	0.700	2.535	-2.338	-2.522	-2.447	-3.117	-2.238	-2.495	-2.535	-2.150	-0.171	1.550
81.25	-2.356	51.000	0.000	-2.353	-2.321	-1.302	0.558	2.431	-2.552	-2.313	-2.378	-3.065	-2.289	-2.353	-2.431	-1.936	-0.379	1.480
81.94	-2.269	51.000	0.000	-2.225	-2.206	-1.426	0.517	2.258	-2.429	-2.225	-2.307	3.103	-2.164	-2.312	-2.258	-2.059	-0.468	1.409
82.64	-2.182	51.000	0.000	-2.199	-2.199	-1.391	0.401	2.248	-2.794	-2.027	-2.208	3.096	-2.199	-2.196	-2.248	-1.694	-0.666	1.311
83.33	-2.094	51.000	0.000	-2.096	-2.286	-1.572	0.301	2.095	1.105	-2.120	-2.000	-3.099	-2.019	-2.096	-2.095	0.690	-0.573	1.102
84.03	-2.007	51.000	0.000	-1.996	-1.998	-1.646	0.203	1.995	-2.319	-1.955	-2.039	2.895	-1.944	-1.998	-1.995	-2.169	-0.738	1.141
84.72	-1.920	51.000	0.000	-1.940	-1.890	1.025	0.194	1.908	-2.456	-1.919	-1.961	2.788	1.668	-1.989	-1.908	-2.032	-0.773	1.064
85.42	-1.833	51.000	0.000	-1.824	-1.825	1.279	0.165	1.824	-2.800	-1.805	-1.880	2.723	1.414	-1.960	-1.824	-1.688	-0.887	0.983
86.11	-1.745	51.000	0.000	-1.746	-1.725	-1.725	0.024	1.691	-2.721	-1.655	-1.810	2.623	-1.866	-1.819	-1.691	-1.767	-1.038	0.913
86.81	-1.658	51.000	0.000	-1.657	-1.635	1.000	-0.115	1.715	-2.884	-1.804	-1.590	2.532	1.693	-1.680	-1.715	-1.604	-0.888	0.692
87.50	-1.571	51.000	0.000	-1.587	-1.504	1.015	-0.201	1.566	-2.829	-1.692	-1.580	2.401	1.678	-1.594	-1.566	-1.659	-1.000	0.683
88.19	-1.484	51.000	0.000	-1.497	-1.568	-1.437	-0.353	1.483	-2.948	2.151	-1.512	2.465	-2.153	-1.442	-1.483	-1.540	1.439	0.614
88.89	-1.396	51.000	0.000	-1.378	-1.412	-1.351	-0.290	1.358	3.128	2.022	-1.398	2.309	-2.239	-1.505	-1.358	-1.333	1.568	0.500
89.58	-1.309	51.000	0.000	-1.348	-1.370	-1.386	-0.372	1.285	3.121	2.036	-1.279	2.268	-2.204	-1.423	-1.285	-1.326	1.555	0.381
90.28	-1.222	51.000	0.000	-1.238	-1.192	-1.201	2.047	1.276	3.035	-1.457	-1.276	2.089	-2.390	2.441	-1.276	-1.240	-1.236	0.379
90.97	-1.134	51.000	0.000	-1.159	-1.157	-1.093	-0.492	1.001	2.956	2.129	-1.196	2.055	-2.498	-1.303	-1.001	-1.161	1.462	0.299
91.67	-1.047	51.000	0.000	-1.027	-1.027	-1.027	1.992	1.044	2.816	2.033	-1.110	1.924	-2.564	2.496	-1.044	-1.021	1.557	0.212
92.36	-0.960	51.000	0.000	-0.937	-1.022	-0.896	-0.800	0.978	2.786	-1.892	-0.879	1.919	-2.694	-0.996	-0.978	-0.991	-0.801	-0.019
93.06	-0.873	51.000	0.000	-0.862	-0.874	-0.960	2.098	0.936	2.645	-1.861	-0.634	1.771	-2.631	2.390	-0.936	-0.850	-0.832	-0.263
93.75	-0.785	51.000	0.000	-0.766	-0.766	-0.850	-0.642	0.887	2.461	-1.820	-0.754	1.664	-2.741	-1.153	-0.887	-0.666	-0.872	-0.144
94.44	-0.698	51.000	0.000	-0.725	-0.634	-0.707	1.808	0.851	2.527	-1.974	-0.945	1.531	-2.884	2.680	-0.851	-0.732	-0.719	0.047
95.14	-0.611	51.000	0.000	-0.575	-0.583	-0.637	-0.536	0.567	2.380	-2.130	2.997	1.480	-2.953	-1.259	-0.567	-0.585	-0.563	2.389
95.83	-0.524	51.000	0.000	-0.584	-0.515	-0.454	-0.680	0.646	2.228	-2.109	-0.776	1.412	-3.136	-1.115	-0.646	-0.433	-0.584	-0.121
96.53	-0.436	51.000	0.000	-0.422	-0.417	-0.422	-0.616	0.581	2.222	-2.326	2.944	1.315	3.115	-1.179	-0.581	-0.427	-0.367	2.442
97.22	-0.349	51.000	0.000	-0.317	-0.308	-0.356	-0.243	0.232	2.120	-2.309	-0.795	1.206	3.049	-1.552	-0.232	-0.325	-0.384	-0.103
97.92	-0.262	51.000	0.000	-0.266	-0.308	-0.280	-0.194	0.258	2.018	-2.382	-0.631	1.206	2.973	-1.601	-0.258	-0.223	-0.311	-0.266
98.61	-0.175	51.000	0.000	-0.142	-0.159	-0.191	-0.126	0.123	1.954	-2.574	2.830	1.056	2.883	-1.669	-0.123	-0.159	-0.119	2.556
99.31	-0.087	51.000	0.000	-0.079	-0.214	-0.089	-0.069	3.036	1.942	-2.661	2.814	1.112	2.781	-1.726	-3.036	-0.147	-0.031	2.572
100.00	0.000	51.000	0.000	-0.015	-0.010	-0.017	0.081	2.987	1.716	-2.671	-0.885	0.908	2.709	-1.876	-2.987	0.079	-0.022	-0.013
