percent	ang_W	r	phase	choose_angle	delta_1_x_7	delta_2_x_1	delta_3_x_2	delta_4_x_3	delta_5_x_4	delta_6_x_5	delta_7_x_6	delta_7_x_1	delta_1_x_2	delta_2_x_3	delta_3_x_4	delta_4_x_5	delta_5_x_6	delta_6_x_7
0.00	0.000	51.000	0.000	0.020	0.048	-0.022	0.013	2.970	1.825	-2.699	-0.925	0.849	2.714	-1.808	-2.970	-0.030	0.006	0.027
0.69	0.087	51.000	0.000	0.086	0.136	0.086	0.081	3.058	1.719	-2.780	-1.004	0.762	2.607	-1.877	-3.058	0.077	0.087	0.106
1.39	0.175	51.000	0.000	0.175	0.172	0.183	0.168	0.175	1.608	-2.847	-1.094	0.725	2.510	-1.963	-0.175	0.187	0.154	0.196
2.08	0.262	51.000	0.000	0.259	0.353	0.262	0.259	0.200	1.547	-2.949	-1.175	0.545	2.431	-2.054	-0.200	0.249	0.256	0.277
2.78	0.349	51.000	0.000	0.342	0.277	0.382	0.342	0.311	1.445	-3.018	-1.276	0.620	2.311	-2.137	-0.311	0.350	0.325	0.378
3.47	0.436	51.000	0.000	0.436	0.340	0.450	0.434	0.424	1.347	-3.120	-1.335	0.558	2.243	-2.229	-0.424	0.448	0.427	0.437
4.17	0.524	51.000	0.000	0.533	0.314	0.527	0.523	0.537	1.258	3.078	-1.431	0.584	2.166	-2.318	-0.537	0.537	0.513	0.533
4.86	0.611	51.000	0.000	0.609	0.289	0.614	0.604	0.621	1.187	2.987	-1.518	0.608	2.079	-2.399	-0.621	0.609	0.604	0.620
5.56	0.698	51.000	0.000	0.703	0.238	0.690	0.703	0.716	1.077	2.875	-1.598	0.659	2.003	-2.498	-0.716	0.718	0.715	0.700
6.25	0.785	51.000	0.000	0.785	0.113	0.764	0.791	0.786	1.079	2.796	-1.680	0.785	1.929	-2.586	-0.786	0.716	0.794	0.782
6.94	0.873	51.000	0.000	0.868	-0.001	0.883	0.867	0.858	1.077	2.720	-1.765	0.899	1.810	-2.663	-0.858	0.718	0.870	0.868
7.64	0.960	51.000	0.000	0.964	-0.077	0.991	0.958	0.967	-2.381	2.636	-1.858	0.974	1.701	-2.753	-0.967	-2.107	0.955	0.961
8.33	1.047	51.000	0.000	1.040	-0.143	1.008	1.061	1.042	0.929	2.552	-1.940	1.041	1.684	-2.856	-1.042	0.866	1.038	1.042
9.03	1.134	51.000	0.000	1.131	-0.233	1.113	1.145	1.134	0.991	2.479	-2.029	1.131	1.580	-2.940	-1.134	0.805	1.111	1.132
9.72	1.222	51.000	0.000	1.226	-0.351	1.226	1.227	1.226	1.224	2.364	-2.108	1.249	1.467	-3.022	-1.226	0.571	1.226	1.210
10.42	1.309	51.000	0.000	1.305	-0.410	1.264	1.325	1.301	1.289	2.285	-2.204	1.308	1.429	-3.120	-1.301	0.506	1.305	1.306
11.11	1.396	51.000	0.000	1.400	-0.489	1.249	1.405	1.383	1.412	2.192	-2.299	1.387	1.443	3.083	-1.383	0.383	1.399	1.401
11.81	1.484	51.000	0.000	1.486	-0.588	1.207	1.500	1.481	1.469	2.122	-2.385	1.486	1.486	2.988	-1.481	0.326	1.468	1.487
12.50	1.571	51.000	0.000	1.571	-0.667	1.077	1.592	1.571	1.564	2.031	-2.476	1.564	1.615	2.896	-1.571	0.231	1.560	1.578
13.19	1.658	51.000	0.000	1.656	-0.767	1.064	1.660	1.651	1.656	1.972	-2.557	1.664	1.628	2.828	-1.651	0.139	1.619	1.660
13.89	1.745	51.000	0.000	1.743	-0.849	0.919	1.782	1.739	1.740	1.860	-2.637	1.746	1.774	2.706	-1.739	0.055	1.730	1.740
14.58	1.833	51.000	0.000	1.845	-0.931	0.847	1.863	1.825	1.846	-1.433	-2.742	1.829	1.846	2.625	-1.825	-0.051	-1.260	1.844
15.28	1.920	51.000	0.000	1.925	-1.014	0.757	1.964	1.919	1.925	1.881	-2.835	1.912	1.936	2.524	-1.919	-0.130	1.709	1.937
15.97	2.007	51.000	0.000	2.010	-1.092	0.665	2.033	1.990	2.009	2.035	-2.908	1.990	2.027	2.455	-1.990	-0.213	1.556	2.010
16.67	2.094	51.000	0.000	2.097	-1.197	0.580	2.135	2.099	2.088	2.059	-2.959	2.095	2.112	2.353	-2.099	-0.293	1.531	2.061
17.36	2.182	51.000	0.000	2.179	-1.289	0.508	2.145	2.179	2.180	2.178	-3.048	2.187	2.184	2.343	-2.179	-0.384	1.412	2.151
18.06	2.269	51.000	0.000	2.268	-1.362	0.403	2.159	2.294	2.268	2.233	3.137	2.259	2.290	2.329	-2.294	-0.473	1.357	2.249
18.75	2.356	51.000	0.000	2.364	-1.457	0.321	-0.835	2.368	2.354	2.360	3.014	2.354	2.372	-0.961	-2.368	-0.559	1.230	2.372
19.44	2.443	51.000	0.000	2.456	-1.530	0.236	2.000	2.463	2.453	2.424	2.929	2.427	2.457	2.488	-2.463	-0.657	1.166	2.456
20.14	2.531	51.000	0.000	2.531	-1.633	0.167	1.896	2.549	2.540	2.515	2.887	2.531	2.526	2.592	-2.549	-0.745	1.075	2.499
20.83	2.618	51.000	0.000	2.615	-1.717	0.078	1.868	2.628	2.615	2.613	-0.491	2.614	2.615	2.620	-2.628	-0.820	0.977	-0.407
21.53	2.705	51.000	0.000	2.710	-1.812	0.001	1.753	2.685	2.710	2.718	-0.516	2.710	2.692	2.735	-2.685	-0.915	0.872	-0.382
22.22	2.793	51.000	0.000	2.788	-1.876	-0.096	1.692	2.762	2.805	2.787	-0.570	2.774	2.789	2.796	-2.762	-1.010	0.803	-0.327
22.92	2.880	51.000	0.000	2.881	-1.992	-0.175	1.605	2.876	2.882	2.881	2.844	2.889	2.868	2.883	-2.876	-1.087	0.710	2.542
23.61	2.967	51.000	0.000	2.971	-2.042	-0.278	1.513	2.974	2.965	2.975	2.907	2.940	2.971	2.975	-2.974	-1.170	0.615	2.478
24.31	3.054	51.000	0.000	3.051	-2.171	-0.356	1.440	2.992	3.053	3.046	3.089	3.068	3.049	3.048	-2.992	-1.258	0.544	2.296
25.00	3.142	51.000	0.000	3.137	-2.203	-0.457	1.340	0.169	3.126	-3.120	3.071	3.100	-3.133	-3.135	-0.169	-1.330	0.427	2.315
25.69	-3.054	51.000	0.000	-3.053	-2.300	-0.533	1.253	2.961	-3.047	-3.046	-3.075	-3.086	-3.057	-3.048	-2.961	-1.441	0.353	2.177
26.39	-2.967	51.000	0.000	-2.970	-2.385	-0.629	1.178	2.956	-2.970	-2.962	-2.987	-3.001	-2.962	-2.973	-2.956	-1.518	0.270	2.089
27.08	-2.880	51.000	0.000	-2.888	-2.471	-0.695	1.078	2.835	-2.851	-2.893	-2.888	-2.915	-2.895	-2.873	-2.835	-1.637	0.200	1.991
27.78	-2.793	51.000	0.000	-2.791	-2.666	-0.806	1.009	2.813	-2.793	-2.801	-2.789	-2.720	-2.784	-2.805	-2.813	-1.695	0.108	1.892
28.47	-2.705	51.000	0.000	-2.701	-2.540	-0.896	0.917	2.672	-2.654	-2.701	-2.732	-2.845	-2.695	-2.712	-2.672	-1.834	0.009	1.834
29.17	-2.618	51.000	0.000	-2.614	-2.587	-0.977	0.818	2.620	-2.587	-2.610	-2.636	-2.798	-2.614	-2.614	-2.620	-1.901	-0.083	1.738
29.86	-2.531	51.000	0.000	-2.525	-2.524	-1.065	0.748	2.503	-2.502	-2.527	-2.537	-2.862	-2.525	-2.543	-2.503	-1.986	-0.166	1.639
30.56	-2.443	51.000	0.000	-2.447	-2.447	-1.130	0.647	2.432	-2.485	-2.428	-2.450	-2.938	-2.461	-2.443	-2.432	-2.003	-0.265	1.553
31.25	-2.356	51.000	0.000	-2.362	-2.393	-1.210	0.550	2.362	-2.332	-2.344	-2.364	-2.993	-2.380	-2.345	-2.362	-2.156	-0.349	1.466
31.94	-2.269	51.000	0.000	-2.271	-2.288	-1.326	0.494	2.241	-2.308	-2.243	-2.277	-3.097	-2.265	-2.289	-2.241	-2.180	-0.450	1.379
32.64	-2.182	51.000	0.000	-2.178	-2.202	-1.364	0.373	2.168	1.012	-2.163	-2.187	3.099	-2.226	-2.168	-2.168	0.783	-0.530	1.290
33.33	-2.094	51.000	0.000	-2.093	-2.093	-1.527	0.304	2.105	-2.506	-2.058	-2.102	2.991	-2.063	-2.099	-2.105	-1.982	-0.635	1.204
34.03	-2.007	51.000	0.000	-2.003	-2.003	-1.654	0.219	2.019	-2.537	-1.987	-2.012	2.901	-1.936	-2.014	-2.019	-1.951	-0.706	1.114
34.72	-1.920	51.000	0.000	-1.924	-1.937	-1.630	0.131	1.916	-2.600	-1.924	-1.902	2.835	-1.961	-1.927	-1.916	-1.888	-0.769	1.005
35.42	-1.833	51.000	0.000	-1.832	-1.841	-1.717	0.032	1.838	-2.678	-1.854	-1.810	2.738	-1.874	-1.827	-1.838	-1.810	-0.838	0.912
36.11	-1.745	51.000	0.000	-1.744	-1.754	-1.722	-0.059	1.752	-2.772	-1.669	-1.752	2.652	-1.868	-1.736	-1.752	-1.716	-1.024	0.854
36.81	-1.658	51.000	0.000	-1.668	-1.686	-1.680	-0.122	1.664	-2.825	-1.668	-1.647	2.584	-1.910	-1.673	-1.664	-1.663	-1.025	0.749
37.50	-1.571	51.000	0.000	-1.579	-1.570	-1.666	-0.205	1.579	-2.932	-1.581	-1.564	2.467	-1.925	-1.590	-1.579	-1.556	-1.112	0.666
38.19	-1.484	51.000	0.000	-1.480	-1.484	-1.500	-0.315	1.473	-3.005	-1.458	-1.466	2.382	-2.090	-1.480	-1.473	-1.483	-1.234	0.568
38.89	-1.396	51.000	0.000	-1.397	-1.386	-1.439	-0.383	1.408	-3.107	-1.493	-1.387	2.283	-2.151	-1.413	-1.408	-1.381	-1.200	0.489
39.58	-1.309	51.000	0.000	-1.308	-1.313	-1.312	-0.492	1.318	3.095	1.865	-1.304	2.210	-2.278	-1.303	-1.318	-1.299	1.725	0.407
40.28	-1.222	51.000	0.000	-1.221	-1.217	-1.229	-0.565	1.225	3.010	-1.475	-1.221	2.115	-2.361	-1.230	-1.225	-1.215	-1.218	0.323
40.97	-1.134	51.000	0.000	-1.122	-1.152	-1.122	-0.694	1.144	2.917	-1.532	-1.111	2.049	-2.468	-1.101	-1.144	-1.122	-1.161	0.213
41.67	-1.047	51.000	0.000	-1.043	-1.038	-1.060	-0.757	1.064	2.831	-1.650	-1.050	1.935	-2.530	-1.038	-1.064	-1.035	-1.043	0.152
42.36	-0.960	51.000	0.000	-0.962	-0.971	-0.959	2.148	0.965	2.753	-1.728	-0.932	1.869	-2.631	2.340	-0.965	-0.958	-0.965	0.034
43.06	-0.873	51.000	0.000	-0.875	-0.876	-0.869	2.126	0.876	2.669	-1.816	-0.870	1.773	-2.721	2.362	-0.876	-0.874	-0.877	-0.028
43.75	-0.785	51.000	0.000	-0.776	-0.772	-0.804	-0.754	0.790	2.584	-1.928	-0.776	1.669	-2.786	-1.041	-0.790	-0.788	-0.765	-0.121
44.44	-0.698	51.000	0.000	-0.706	-0.706	-0.695	-0.789	0.716	2.478	-1.982	-0.631	1.604	-2.895	-1.006	-0.716	-0.683	-0.711	-0.266
45.14	-0.611	51.000	0.000	-0.616	-0.590	-0.616	-0.645	0.617	2.407	-2.077	-0.669	1.488	-2.974	-1.150	-0.617	-0.611	-0.616	-0.228
45.83	-0.524	51.000	0.000	-0.515	-0.510	-0.536	-0.508	0.492	2.336	-2.178	-0.533	1.408	-3.055	-1.287	-0.492	-0.541	-0.515	-0.365
46.53	-0.436	51.000	0.000	-0.447	-0.465	-0.422	-0.444	0.460	2.208	-2.242	2.855	1.362	3.115	-1.351	-0.460	-0.412	-0.451	2.530
47.22	-0.349	51.000	0.000	-0.335	-0.326	-0.360	-0.335	0.308	2.162	-2.351	-0.627	1.223	3.053	-1.460	-0.308	-0.367	-0.342	-0.271
47.92	-0.262	51.000	0.000	-0.261	-0.245	-0.263	-0.283	0.313	2.056	-2.433	-0.681	1.142	2.956	-1.512	-0.313	-0.261	-0.260	-0.216
48.61	-0.175	51.000	0.000	-0.172	-0.172	-0.175	-0.157	0.123	1.976	-2.518	-0.760	1.070	2.868	-1.638	-0.123	-0.181	-0.175	-0.138
49.31	-0.087	51.000	0.000	-0.093	-0.092	-0.082	-0.109	0.171	1.893	-2.600	-0.841	0.990	2.775	-1.686	-0.171	-0.097	-0.093	-0.057
50.00	0.000	51.000	0.000	-0.006	-0.009	-0.002	0.003	3.079	1.806	-2.697	-0.895	0.907	2.695	-1.799	-3.079	-0.011	0.004	-0.002
50.69	0.087	51.000	0.000	0.084	0.154	0.083	0.076	3.105	1.715	-2.777	-1.008	0.743	2.610	-1.872	-3.105	0.080	0.085	0.110
51.39	0.175	51.000	0.000	0.180	0.178	0.186	0.159	0.222	1.623	-2.872	-1.079	0.720	2.506	-1.954	-0.222	0.172	0.180	0.181
52.08	0.262	51.000	0.000	0.261	0.246	0.270	0.251	0.280	1.535	-2.954	-1.160	0.652	2.423	-2.047	-0.280	0.261	0.261	0.263
52.78	0.349	51.000	0.000	0.354	0.369	0.361	0.348	0.325	1.455	-3.035	-1.266	0.529	2.332	-2.143	-0.325	0.340	0.342	0.369
53.47	0.436	51.000	0.000	0.439	-2.612	0.441	0.438	0.426	1.355	-3.127	-1.339	-2.774	2.252	-2.233	-0.426	0.441	0.434	0.442
54.17	0.524	51.000	0.000	0.520	0.342	0.538	0.520	0.500	1.303	3.071	-1.432	0.556	2.155	-2.315	-0.500	0.492	0.519	0.534
54.86	0.611	51.000	0.000	0.615	0.228	0.615	0.629	0.585	1.143	3.000	-1.511	0.670	2.078	-2.424	-0.585	0.653	0.590	0.614
55.56	0.698	51.000	0.000	0.697	0.267	0.693	0.683	0.732	1.080	2.893	-1.614	0.630	2.000	-2.478	-0.732	0.715	0.697	0.716
56.25	0.785	51.000	0.000	0.785	0.081	0.802	0.775	0.779	1.110	2.805	-1.683	0.816	1.891	-2.570	-0.779	0.685	0.785	0.786
56.94	0.873	51.000	0.000	0.872	0.008	0.883	0.872	0.849	1.035	2.744	-1.780	0.890	1.810	-2.667	-0.849	0.760	0.846	0.882
57.64	0.960	51.000	0.000	0.963	-0.067	0.980	0.953	0.955	1.048	2.631	-1.861	0.964	1.712	-2.748	-0.955	0.747	0.960	0.963
58.33	1.047	51.000	0.000	1.055	-0.167	1.073	1.053	1.038	1.063	2.536	-1.937	1.065	1.620	-2.848	-1.038	0.732	1.055	1.039
59.03	1.134	51.000	0.000	1.140	-0.225	1.189	1.123	1.132	1.162	2.447	-2.038	1.122	1.503	-2.918	-1.132	0.633	1.144	1.140
59.72	1.222	51.000	0.000	1.220	-0.324	-1.639	1.218	1.217	1.216	2.369	-2.131	1.221	-1.951	-3.014	-1.217	0.579	1.221	1.234
60.42	1.309	51.000	0.000	1.303	-0.421	-1.737	1.294	1.337	1.266	2.302	-2.210	1.319	-1.854	-3.089	-1.337	0.530	1.288	1.312
61.11	1.396	51.000	0.000	1.382	-0.506	1.323	1.412	1.377	1.386	2.237	-2.294	1.403	1.370	3.076	-1.377	0.409	1.353	1.397
61.81	1.484	51.000	0.000	1.487	-0.590	1.179	1.472	1.506	1.483	2.098	-2.384	1.487	1.514	3.016	-1.506	0.312	1.492	1.487
62.50	1.571	51.000	0.000	1.577	-0.679	1.089	1.551	1.592	1.552	1.997	-2.445	1.577	1.604	2.937	-1.592	0.243	1.593	1.547
63.19	1.658	51.000	0.000	1.656	-0.753	0.984	1.669	1.667	1.645	1.947	-2.553	1.651	1.709	2.819	-1.667	0.150	1.644	1.656
63.89	1.745	51.000	0.000	1.744	-0.842	0.945	1.742	1.735	1.753	1.880	-2.643	1.739	1.748	2.746	-1.735	0.043	1.711	1.746
64.58	1.833	51.000	0.000	1.833	-0.936	0.850	1.827	1.839	1.818	1.985	-2.736	1.833	1.843	2.661	-1.839	-0.023	1.605	1.838
65.28	1.920	51.000	0.000	1.923	-1.026	0.800	1.890	1.923	1.929	1.911	-2.833	1.923	1.893	2.598	-1.923	-0.134	1.679	1.936
65.97	2.007	51.000	0.000	2.008	-1.093	0.676	1.974	2.008	2.020	1.976	-2.918	1.991	2.017	2.514	-2.008	-0.224	1.614	2.020
66.67	2.094	51.000	0.000	2.101	-1.188	0.575	2.141	2.088	2.093	2.109	-2.985	2.085	2.118	2.347	-2.088	-0.297	1.481	2.088
67.36	2.182	51.000	0.000	2.175	-1.275	0.489	-0.781	2.181	2.174	2.176	-3.061	2.173	2.204	-1.014	-2.181	-0.379	1.415	2.163
68.06	2.269	51.000	0.000	2.265	-1.365	0.391	-0.774	2.285	2.268	2.248	3.140	2.262	2.302	-1.021	-2.285	-0.473	1.343	2.245
68.75	2.356	51.000	0.000	2.358	-1.460	0.334	2.095	2.386	2.337	2.340	3.075	2.358	2.359	2.393	-2.386	-0.541	1.250	2.311
69.44	2.443	51.000	0.000	2.440	-1.542	0.247	1.999	2.433	2.461	2.422	2.982	2.440	2.445	2.489	-2.433	-0.666	1.169	2.404
70.14	2.531	51.000	0.000	2.534	-1.623	0.149	1.927	2.553	2.534	2.524	2.861	2.521	2.544	2.561	-2.553	-0.739	1.066	2.525
70.83	2.618	51.000	0.000	2.623	-1.709	0.063	1.865	2.665	2.603	2.613	2.752	2.606	2.630	2.623	-2.665	-0.808	0.977	2.633
71.53	2.705	51.000	0.000	2.699	-1.779	-0.033	1.803	2.717	2.693	2.705	-0.535	2.676	2.726	2.685	-2.717	-0.898	0.886	-0.363
72.22	2.793	51.000	0.000	2.803	-1.900	-0.102	1.674	2.823	2.803	2.775	2.874	2.797	2.795	2.814	-2.823	-1.008	0.815	2.511
72.92	2.880	51.000	0.000	2.879	-1.978	-0.188	1.609	2.855	2.889	2.884	2.838	2.876	2.881	2.879	-2.855	-1.094	0.706	2.548
73.61	2.967	51.000	0.000	2.972	-2.074	-0.261	1.500	3.018	2.973	2.963	2.948	2.972	2.954	2.988	-3.018	-1.178	0.628	2.438
74.31	3.054	51.000	0.000	3.059	-2.147	-0.365	1.426	2.954	3.085	3.043	3.061	3.045	3.057	3.062	-2.954	-1.290	0.547	2.324
75.00	3.142	51.000	0.000	3.136	-2.218	-0.447	1.337	3.123	-3.130	3.133	3.125	3.116	3.139	-3.132	-3.123	-1.358	0.457	2.261
75.69	-3.054	51.000	0.000	-3.050	-2.362	-0.515	1.238	0.040	-3.054	-3.055	-3.045	-3.024	-3.076	-3.033	-0.040	-1.434	0.363	2.148
76.39	-2.967	51.000	0.000	-2.957	-2.404	-0.615	1.156	2.906	-2.942	-2.975	-2.957	-2.982	-2.975	-2.952	-2.906	-1.546	0.283	2.059
77.08	-2.880	51.000	0.000	-2.883	-2.501	-0.707	1.092	2.822	-2.863	-2.867	-2.906	-2.884	-2.883	-2.887	-2.822	-1.625	0.174	2.008
77.78	-2.793	51.000	0.000	-2.793	-2.482	-0.806	0.993	2.808	-2.784	-2.793	-2.815	-2.903	-2.784	-2.788	-2.808	-1.704	0.100	1.917
78.47	-2.705	51.000	0.000	-2.713	0.385	-0.873	0.913	2.702	-2.718	-2.696	-2.721	0.513	-2.717	-2.708	-2.702	-1.770	0.003	1.823
79.17	-2.618	51.000	0.000	-2.619	0.337	-0.967	0.836	2.593	-2.617	-2.611	-2.621	0.560	-2.623	-2.631	-2.593	-1.871	-0.082	1.724
79.86	-2.531	51.000	0.000	-2.530	-2.473	-1.060	0.742	2.512	-2.489	-2.531	-2.550	-2.913	-2.530	-2.537	-2.512	-1.999	-0.162	1.652
80.56	-2.443	51.000	0.000	-2.444	-2.440	-1.146	0.645	2.452	-2.522	-2.422	-2.448	-2.946	-2.444	-2.441	-2.452	-1.966	-0.271	1.551
81.25	-2.356	51.000	0.000	-2.352	-2.362	-1.250	0.566	2.352	-2.349	-2.353	-2.351	-3.023	-2.340	-2.361	-2.352	-2.139	-0.340	1.454
81.94	-2.269	51.000	0.000	-2.268	-2.268	-1.296	0.459	2.255	1.078	-2.274	-2.269	-3.118	-2.295	-2.254	-2.255	0.718	-0.419	1.371
82.64	-2.182	51.000	0.000	-2.188	-2.212	-1.375	0.378	2.183	1.021	-2.193	-2.174	3.110	-2.216	-2.173	-2.183	0.774	-0.500	1.276
83.33	-2.094	51.000	0.000	-2.088	-2.116	-1.509	0.299	2.082	0.944	-2.074	-2.094	3.014	-2.082	-2.095	-2.082	0.851	-0.619	1.196
84.03	-2.007	51.000	0.000	-2.012	-2.014	-1.578	0.217	2.014	-2.498	-2.026	-1.999	2.912	-2.012	-2.012	-2.014	-1.990	-0.666	1.101
84.72	-1.920	51.000	0.000	-1.921	-1.920	-1.628	0.117	1.921	-2.565	-1.921	-1.921	2.817	-1.962	-1.912	-1.921	-1.923	-0.772	1.024
85.42	-1.833	51.000	0.000	-1.832	-1.833	1.214	0.039	1.842	-2.671	-1.826	-1.830	2.730	1.478	-1.834	-1.842	-1.817	-0.867	0.933
86.11	-1.745	51.000	0.000	-1.734	-1.751	1.226	-0.034	1.731	-2.760	-1.705	-1.737	2.649	1.467	-1.761	-1.731	-1.728	-0.988	0.839
86.81	-1.658	51.000	0.000	-1.649	-1.674	-1.577	-0.166	1.674	-2.839	-1.632	-1.657	2.572	-2.014	-1.629	-1.674	-1.649	-1.061	0.760
87.50	-1.571	51.000	0.000	-1.569	-1.569	-1.592	-0.203	1.563	-2.932	-1.549	-1.569	2.467	-1.999	-1.592	-1.563	-1.556	-1.144	0.671
88.19	-1.484	51.000	0.000	-1.489	-1.489	-1.490	-0.300	1.486	-3.001	-1.574	-1.469	2.387	-2.101	-1.495	-1.486	-1.487	-1.119	0.571
88.89	-1.396	51.000	0.000	-1.392	-1.401	-1.389	-0.406	1.404	-3.093	-1.363	-1.399	2.298	-2.201	-1.389	-1.404	-1.395	-1.330	0.502
89.58	-1.309	51.000	0.000	-1.310	-1.313	-1.304	-0.489	1.311	3.104	1.869	-1.312	2.210	-2.287	-1.306	-1.311	-1.309	1.722	0.415
90.28	-1.222	51.000	0.000	-1.224	-1.225	-1.235	-0.544	1.224	3.014	-1.549	-1.201	2.122	-2.355	-1.251	-1.224	-1.218	-1.144	0.303
90.97	-1.134	51.000	0.000	-1.132	-1.133	-1.134	-0.665	1.133	2.927	-1.565	-1.126	2.031	-2.456	-1.130	-1.133	-1.132	-1.128	0.229
91.67	-1.047	51.000	0.000	-1.052	-1.032	-1.066	-0.701	1.045	2.843	-1.641	-1.066	1.930	-2.525	-1.094	-1.045	-1.048	-1.052	0.169
92.36	-0.960	51.000	0.000	-0.958	-0.971	-0.958	2.207	0.979	2.740	-1.734	-0.938	1.869	-2.633	2.281	-0.979	-0.945	-0.959	0.040
93.06	-0.873	51.000	0.000	-0.866	-0.866	-0.866	2.144	0.874	2.654	-1.822	-0.855	1.763	-2.725	2.344	-0.874	-0.858	-0.871	-0.042
93.75	-0.785	51.000	0.000	-0.781	-0.776	-0.806	-0.727	0.781	2.577	-1.900	-0.776	1.674	-2.785	-1.068	-0.781	-0.782	-0.793	-0.121
94.44	-0.698	51.000	0.000	-0.709	-0.687	-0.711	-0.689	0.714	2.482	-1.983	-0.723	1.584	-2.880	-1.106	-0.714	-0.687	-0.709	-0.175
95.14	-0.611	51.000	0.000	-0.619	-0.595	-0.619	-0.620	0.613	2.416	-2.096	-0.640	1.493	-2.972	-1.176	-0.613	-0.620	-0.597	-0.257
95.83	-0.524	51.000	0.000	-0.527	-0.532	-0.527	-0.526	0.542	2.320	-2.167	-0.548	1.429	-3.063	-1.270	-0.542	-0.525	-0.526	-0.349
96.53	-0.436	51.000	0.000	-0.429	-0.430	-0.429	-0.432	0.421	2.233	-2.269	-0.471	1.328	3.121	-1.363	-0.421	-0.438	-0.424	-0.427
97.22	-0.349	51.000	0.000	-0.350	-0.339	-0.361	-0.346	0.354	2.152	-2.358	2.735	1.237	3.053	-1.449	-0.354	-0.357	-0.334	2.651
97.92	-0.262	51.000	0.000	-0.260	-0.260	-0.254	-0.284	0.245	2.065	-2.429	-0.639	1.158	2.947	-1.511	-0.245	-0.270	-0.264	-0.258
98.61	-0.175	51.000	0.000	-0.178	-0.160	-0.178	-0.186	0.198	1.980	-2.529	-0.727	1.057	2.871	-1.609	-0.198	-0.185	-0.164	-0.171
99.31	-0.087	51.000	0.000	-0.082	-0.063	-0.078	-0.102	3.044	1.889	-2.607	-0.830	0.961	2.770	-1.694	-3.044	-0.094	-0.086	-0.068
100.00	0.000	51.000	0.000	0.009	0.016	0.001	-0.023	0.156	1.786	-2.693	-0.885	0.882	2.692	-1.772	-0.156	0.009	0.000	-0.012
